TimeStamp;AngleElbow;AngleWrist;AngleShoulder;LShoulderElbow;LElbowWrist
133276546;151.3451840523669;159.83703433073126;144.78982729439713;0.924352398928268;0.909287734409164
133276578;151.22797212894577;154.82042567908934;144.78109278325238;0.92409113777166207;0.9094066230205724
133276593;151.28663736919825;153.86965865310569;144.81386931210935;0.92423876357778156;0.90898565897510752
133276625;151.31384256060773;154.73981392046369;144.86155092261322;0.92422896406318078;0.90862310237412125
133276656;151.3457797603653;159.38288231697581;144.90712444990336;0.92425650588249408;0.91043643145315434
133276687;151.40984190738294;159.888284229521;144.91708493597466;0.92437569035552825;0.91002342782297208
133276718;151.12867802678582;160.58252322785418;144.98877476120046;0.9244699925694041;0.9105125307932187
133276765;150.58409246027659;161.49507690827875;145.07995857238691;0.92478308017009281;0.9096692831195109
133276828;150.30333664198062;161.28104335671398;145.24823761489245;0.92471273352284766;0.90983724112544628
133276859;150.08293000030233;155.37354433073844;145.45084186435409;0.92478972131638471;0.90998587640269035
133276890;150.30172140274351;154.49306876971463;145.64390231646937;0.925142207476334;0.90908238164566924
133276921;150.13823816923937;154.2315407855447;145.85032095053745;0.92517296091473045;0.90813907768475965
133276953;150.03043379120808;154.84329071986272;146.13768079398363;0.92529482062475643;0.90771106730347328
133276984;149.89761772516405;159.04980793144375;146.32279476314787;0.92531574085461077;0.90756211753357918
133277031;149.71719052321328;158.6247101288524;146.58850667262786;0.92551617746294079;0.90739633644239148
133277062;149.86386733664705;159.53965099765523;146.68845064253162;0.92559784588797345;0.9066260932472795
133277093;149.54637274888469;158.58258197084655;147.10330846040372;0.92570970787756524;0.906540161426224
133277125;150.20998101314345;159.20628229380026;145.12880090559062;0.92317684532722255;0.90643641599840552
133277156;149.88909103861204;159.27593005410907;146.4240090880476;0.92507777743323061;0.90594027101872021
133277187;149.64608561767375;159.08108827743874;146.76793202353645;0.92514302596720621;0.90578073527046266
133277218;149.13438275061867;159.52883130467913;147.10248662255333;0.92521634930297458;0.90818815785546647
133277296;148.73481225296828;160.1745421667313;147.53372766158014;0.92576711156205216;0.9074041810271386
133277328;167.85652627793624;131.33997244762267;148.31649247125517;0.92746577504407046;0.93655643167724334
133277359;171.02468079368325;132.31550065223854;139.64505752884645;0.91993347807571313;0.93654656110652879
133277390;152.73966546315947;157.1329125289665;140.82361723232688;0.92174528942085054;0.90762302028899455
133277421;172.07115165956063;126.52351865349152;141.93040241470447;0.92399824337140113;0.93739843858363214
133277453;171.50833584008618;125.77804583300976;142.64545193814789;0.92548810807423654;0.93838482779544374
133277484;170.72708475008986;125.79049664375914;143.82496846271945;0.92952201936480749;0.94214594616093317
133277531;155.87283094850656;148.97243651737782;144.6350788625258;0.93402760480866587;0.93478708298291424
133277562;174.41628792841519;117.9726999516248;120.1378242756229;0.91943010442701212;0.97388065533306312
133277593;175.38277972614438;108.95832080493375;144.01107323539412;0.94127022090691381;0.97989104074479272
133277625;159.9014209941727;134.81346406531847;145.7240367911858;0.94855742743461113;0.97976384723627286
133277656;160.88532785008519;135.23692196661037;145.87714780951592;0.9533035260800935;0.98965000085709143
133277687;160.95625526427941;138.41110389609662;145.06797479089025;0.95858848446686851;0.98913670006006571
133277718;160.49882763851139;139.25100635221929;144.56402388344333;0.96090845602835673;0.98529264436691621
133277765;157.00164638813121;143.56674673808496;144.15095602459891;0.963995307779079;0.97815322812417749
133277796;156.18416876852157;144.30409757705078;145.34157008116611;0.96775186937584756;0.97666965756542412
133277828;154.00256251594593;147.70047608390661;145.95714726418407;0.97110217386443687;0.97505734175657921
133277859;158.19412517966237;141.78988794736921;146.34524481125729;0.97584178824166723;0.98183332415720914
133277890;154.77842527904562;147.73691286067648;146.14535536580712;0.97881978829528982;0.98238246480721014
133277921;155.2978436076165;153.82916892267667;145.96980755797742;0.98259832282001358;0.9850356027050865
133277953;158.91200538403811;147.41483027172347;145.39314624900339;0.984965243077004;0.9914035731827977
133278000;161.20489726034893;149.1185845480704;146.03135030444989;0.992526996940388;0.99310434785138968
133278031;145.91822079023115;171.24715175087533;145.82392084159642;0.99774976367232493;0.9863165900178188
133278062;144.61347518967136;172.15470943760184;145.14260640517961;0.99818785161997436;0.98654647579958477
133278125;156.57293495894675;172.46982791591003;143.89138331319938;1.0069572442124979;1.0006244958858881
133278156;154.34977524359476;167.44762258535184;145.78736662757939;1.012620687271468;1.0069077252961132
133278187;154.50218346650374;169.64962167674065;145.23646152757951;1.0180422798000597;1.0085693425232312
133278265;147.58850687328024;168.37800411661635;145.16339415522504;1.0250150833519751;1.0120532690828006
133278296;152.09181623299796;170.65889636462526;150.70366686721917;1.0278851746632551;1.0112247746569996
133278328;152.36382850071166;168.442625288865;151.0698283524595;1.0302053167902403;1.0118532153132291
133278359;154.60329388842277;167.27834900880353;147.18746835619322;1.03731491518686;1.0128748221960933
133278390;155.70800117396868;165.55909026247252;144.31655362228005;1.0445494336050489;1.0149074248959593
133278421;155.02973199688711;164.10380621627184;142.74320034799791;1.0501877142643734;1.0164881091671099
133278453;158.16915107385935;147.50303863405605;140.53350498359114;1.0598426556846632;0.99724185961240053
133278484;158.39043300470669;140.34892893190991;141.21791309228868;1.0637594965769419;1.0006141883184672
133278531;150.66785814903653;167.34002702166103;117.8358353999583;1.0609189099456711;0.97896111040386924
133278562;154.89237277870421;154.27153662002306;116.92504630468403;1.0736543633676481;0.9971999192905453
133278593;154.95183403966507;141.25235569214843;100.66950433415153;1.0993162649140209;1.0665749503887547
133278625;162.71116411995695;128.11642490091828;126.52190049169754;1.075468480946032;1.0507022723479758
133278656;155.46879339551589;111.48829897785171;129.24762355910474;1.1055800837749619;1.0285801845266087
133278687;112.85613830883253;171.66034870505663;134.14837307435016;1.0910783524992886;1.002384071078418
133278718;144.71218735602798;166.35523864320822;122.48543046612635;1.0553794700434553;0.90081333348656989
133278765;145.73607486020231;163.11200080622572;123.96606203757058;1.0622691592477946;0.90083147351639048
133278796;145.95199775560587;160.09828991392405;128.91184548430167;1.0626983787095077;0.89982891478067029
133278828;145.2241103301414;157.20712925621268;131.60869740835173;1.0646773359572992;0.903098728692032
133278859;145.31823382190228;154.96042618986004;133.94305567190136;1.0669927703302129;0.90495207387163168
133278890;144.71097676735269;151.76063137557526;135.8116581805601;1.0690024551628885;0.90859441222811
133278921;142.86761053643355;150.48770095057645;137.83809783354329;1.0720948003644468;0.91527991045794943
133278953;142.58678370635295;149.22181556752119;138.85523500303927;1.0734321681552594;0.91810400515851709
133278984;104.53827282249654;166.14035032428959;149.7981615344379;1.1205270990587335;1.0477364888949168
133279031;104.85824282371135;167.60311153426895;151.08609680024009;1.1283767478489155;1.0492167931885572
133279062;104.33466136622396;169.14091030563805;151.50550519211114;1.128582259633186;1.0510236641905231
133279093;103.85669112647427;169.90306635731116;151.60793586253044;1.1285829005100354;1.0525897371740189
133279125;102.11277451897192;171.15055750789028;151.99200017924474;1.1309723633875721;1.0581844234924824
133279156;100.55410657398031;171.42024723762691;152.204772777478;1.1323840431576395;1.0627970269563642
133279187;108.18767503929254;122.51527166937427;148.9018221401962;1.0617845682086826;0.99837086942185538
133279218;105.51739487198711;123.34634815267539;148.63007785375885;1.0624504879833208;1.0060849735246094
133279265;102.35302730311783;124.45282974653217;148.44357115104793;1.0635130750228328;1.0149047773244897
133279296;100.2313340555359;141.70018253542085;148.31154578709857;1.0721936784969;1.0294024665824517
133279328;98.815983238850251;133.64296638837311;149.34003303415906;1.0741084839917965;1.0345999851285219
133279359;101.54850267859891;107.08663410781098;144.99272020504503;1.06337363362953;1.026099875901515
133279390;107.14318008701903;164.75178806440729;142.43850983236726;1.0612227832228427;1.0396906669991406
133279421;99.307862679395527;164.47318660935522;141.24745301531092;1.0641517340094828;1.0393663699260167
133279453;100.79070247436023;155.1778820455188;140.40816583919494;1.0679925959380039;1.0404885916781257
133279484;100.25205448414681;148.46761833904878;141.3386013655641;1.0643827219175077;1.039648794289747
133279531;104.03291212136773;143.76373820758042;138.81434982026158;1.0591251474254708;1.0288811682673165
133279562;100.19674472992529;144.64187545499445;139.69963514180515;1.0618782507876183;1.0393528005709516
133279593;100.52891962631696;145.67621834660667;142.29771662429954;1.065736321775179;1.0364625957147837
133279625;93.744275962657539;169.06190209690183;141.04597362876476;1.0642754562350643;1.0370744927358881
133279656;99.67411425421335;145.27607150294674;141.17425303003284;1.0642858360184868;1.0247367746235034
133279687;87.0656072956272;171.98431899507631;140.70513892535539;1.064041861966935;1.0620065248303732
133279718;87.509763941929535;175.91970321764185;139.57939192071137;1.0614791338193359;1.0613446669778004
133279765;96.767185315848238;108.00469904896195;131.89822425326295;1.0490910830942268;1.0215400081417925
133279796;90.592589047347246;122.77181116055814;131.40610002555991;1.0496214210519814;1.0351968088417376
133279828;89.590172775063678;112.75988837234344;130.62926788361469;1.051485111228174;1.0381325776555164
133279890;91.967443245814636;168.78193166066822;121.4491589610312;1.0536501891779202;1.0374974680019589
133279921;95.515825702768254;165.80346432621062;114.96257366886283;1.060959975015731;1.0348765370167439
133279953;96.52465291690055;162.71502219778745;112.14832881114698;1.0628030147485557;1.0339782373349136
133280000;95.423833829235193;162.67555896552412;111.51064037407372;1.0633654774963444;1.0370887253931433
133280031;95.576170048953443;161.35419516454434;110.87072852236123;1.0634173382367704;1.0367794936590677
133280062;84.7589985051982;168.49762752578005;136.62701370167505;1.0782067796977548;1.051851563740593
133280093;84.16642535781925;167.64691933210904;136.93771866165429;1.0759731519181865;1.0510364485773016
133280125;85.40549529899684;164.752675362481;136.42384291338735;1.0771260911660954;1.0495752628607937
133280156;84.93067287331634;170.73900627161933;136.46313346774991;1.0782468528553106;1.0533498587680774
133280187;95.120706230274251;146.84984912640135;137.63299145041668;1.0799816586392843;1.03256772880545
133280218;93.682762493672485;152.19907110822209;138.5164838819411;1.0822026086402508;1.037396020500599
133280265;93.424595231026132;153.27991912332431;138.96203898970461;1.0845487366933084;1.0394313363699796
133280296;94.2290209714915;149.60586572580431;138.95390732780689;1.0851051050203273;1.0388905333183729
133280328;89.538786528918322;153.10282512734219;145.12680925319987;1.0984484382970883;1.0612848187310933
133280359;93.062841745507413;149.01705517154764;141.83886148121766;1.0943233417400671;1.056117048571664
133280390;95.026213333558076;149.25431617629411;140.92501089090075;1.0942174988948925;1.0555302021384294
133280421;96.495513152107392;152.31077257785429;140.89506981609287;1.0954027568107378;1.0559223721853206
133280453;100.01499489204134;147.23193159459808;141.29680021276582;1.0965379039235472;1.0527446160668148
133280484;101.63991869049455;145.24797414592212;142.95593545335859;1.0999963353389841;1.0597577569168388
133280515;78.445944401247161;151.12395927152832;146.19594251421373;1.0708790270344486;1.0868113250473441
133280562;68.759057398195807;160.777919806184;156.6820313977147;1.1121190517792872;1.1651513843921695
133280593;69.7107516950231;164.37955106219758;153.405185468519;1.1031166292181449;1.1629208087715341
133280625;69.744967821818733;164.57266626752698;152.01025070418689;1.1000397852060051;1.1626006803424831
133280656;73.148313446877225;149.70270579286472;151.56897558050028;1.1093507307339439;1.1647767019795978
133280687;91.596289942769744;75.84535965135052;149.4274263940315;1.1009179026220395;1.0779309154777019
133280750;97.854678852442419;156.32485045549615;148.19386989255312;1.105221379480591;1.0776890818190925
133280796;87.827411517491271;84.844160363442853;150.95821945716793;1.1219950678188104;1.1165492654441516
133280828;96.194109792667575;158.1084973045968;151.30434087495758;1.1237375586234963;1.1073377676649117
133280859;91.927002512567668;165.99302983826962;151.07847504181794;1.1053726922535241;1.0996533727897897
133280890;90.250221869679919;169.48950941618298;149.4131986263441;1.1095341984357017;1.1170442702963239
133280921;92.076961021568721;169.32018337091895;149.39442332760325;1.1123474221432916;1.1143982556142438
133280953;102.77952785725775;165.4447078050778;149.45626221852652;1.1402949183274698;1.1111481011462574
133280984;103.0308807163389;163.30166151134671;150.30903961594407;1.1074214039717814;1.0874328708920846
133281031;98.3453955732614;166.23793277224624;152.81944796935582;1.1094910201308492;1.1031758753217569
133281062;97.216059828951245;167.66894333304708;153.47500168684633;1.110271878609479;1.1135441182284562
133281093;98.531203577548041;165.74328495850736;153.58629664746675;1.1068644231376326;1.1086948859811516
133281125;95.541671504020442;168.91951401780042;154.10060259484726;1.110086852872274;1.1222873115579211
133281156;94.315564863320475;170.13488222829875;154.32753822909422;1.1107237031097021;1.126096434893473
133281187;93.891661316344781;170.31615826651429;154.52265500496981;1.1118514575756331;1.128399700939023
133281218;93.343846666822742;170.61676648538926;154.82491156535758;1.1123917987521603;1.1307446635955303
133281265;93.07099830309501;170.32034456226256;154.79406889002431;1.1116933278141983;1.1312736629505538
133281296;92.017747231155681;171.3109218236448;154.775785977911;1.1118279158277267;1.1297620540057081
133281328;91.267165919902581;171.22593480346569;154.78314181374657;1.1116852661461221;1.1298293927713012
133281359;90.842224878661412;170.5701906729328;154.61710271443613;1.1114200024642926;1.1293230009098396
133281390;91.0140940544662;169.73726820829435;154.56696877677345;1.1112956280433173;1.132416939804374
133281421;90.447565547512312;168.75168279621178;154.40321769620641;1.110859351561815;1.130876655238203
133281453;90.170647734002642;167.30642079089563;154.15431960304832;1.1104093333735634;1.1306643218122843
133281484;89.965847494502057;166.2993830785131;153.73763746965003;1.109751602872499;1.1317861042203909
133281531;89.738216479218821;165.05239079075693;153.34710377597122;1.1091414017603611;1.1324447152349464
133281562;90.20966429081362;165.53775061904531;154.5213940865373;1.1105128385141634;1.1233865023651564
133281593;94.9176056258258;159.76099353915365;154.91604645465014;1.1222593935654868;1.1151953120475309
133281625;94.922251258636976;157.87462178311068;154.95255186922287;1.1246577131018145;1.1162962238543746
133281656;95.11541751517376;156.64293578363854;155.0675568572843;1.12745410243529;1.1173198180997008
133281687;88.2861092971352;162.11791375054847;152.04081346735171;1.1085086063452909;1.1317522546040382
133281718;87.692950875912288;161.44570685370138;151.58826481889631;1.1081834775359631;1.1331181778102319
133281765;87.59243264731802;160.27744054963719;150.99081455868972;1.1070242392998788;1.1322978763058007
133281796;87.012583541031788;160.58495927287004;150.84442908518756;1.1071235267318116;1.1335060943889819
133281828;86.359701681331387;160.36032860959818;150.68120121221674;1.1071695323171797;1.134728835637703
133281859;85.29339806225471;161.73920396592627;151.37741748873665;1.1107914866802191;1.1379222907518229
133281890;80.2501466718073;170.30866277598932;148.12596704975962;1.1192903913048282;1.1476160095452717
133281921;80.905220432109985;173.64611323053617;147.04684507610128;1.1080202517971018;1.1459887399941444
133281953;80.777286634327922;174.85008993263676;145.87678244366433;1.1027224923889267;1.1445986376589488
133281984;80.154945773109958;175.04104361305011;144.23783331276047;1.1008876130785557;1.1450268075404162
133282031;77.995701819824;178.05190052512515;143.46348049134687;1.0994931643171992;1.1486035721095096
133282062;77.839992622522644;177.67848524742459;143.93474290246567;1.1031264390601039;1.1490771156714028
133282093;77.571195880947215;176.71996853561041;143.24898647282572;1.101507334112755;1.147904335271567
133282125;77.796621811491164;175.49042680650405;143.47148444377442;1.0990564611534024;1.1439790984968925
133282156;78.1145589027643;176.88455630732358;143.71909468494221;1.0974386701956618;1.1407299155948985
133282187;76.630893347735608;175.58452270133094;143.50633096420393;1.0959948684126741;1.1420036991457927
133282218;76.489659939800461;174.97839126157231;144.84872841357765;1.0958521822399097;1.1418354679055183
133282265;76.659801758553087;175.75859184317122;144.10903431614341;1.0946854806166781;1.1400026551568971
133282296;76.5254565586458;175.56507118009304;143.68922617428757;1.0941987016771904;1.1397607545025839
133282328;76.477682338521873;177.71659590185729;143.37963970894427;1.0943424771357684;1.1399358396995327
133282359;77.219435501716561;178.01605750878659;142.90694252841092;1.0931912958620609;1.1368746044530871
133282390;77.272908237948741;177.63284203134808;142.63955589561877;1.0933618901939508;1.1366645616119884
133282421;76.888581766136312;178.48295485774247;142.6317226703481;1.093389653183648;1.1374233562830847
133282453;77.784934572573931;177.08874930884548;142.0476355393684;1.0925070236786902;1.1347221819692608
133282484;77.866724773767046;176.54174088953724;141.85703042835092;1.0920839356498302;1.133957980516789
133282515;77.701109702378844;177.74818984441913;141.70096335956518;1.0924185586375106;1.1347022879914455
133282562;78.0189800882742;176.75410084103677;141.51399697870397;1.0916015165487296;1.1331362112583505
133282593;77.565915474723411;178.49012355368745;141.20927029069321;1.0909672329366855;1.1337285819038809
133282625;77.9633173386753;176.57174749041718;141.02080002424029;1.0924639759401149;1.1347356726854465
133282656;78.3568804398536;175.35394447527645;141.12707802358844;1.0926139071602485;1.1337762399832472
133282687;78.612570030423484;174.77393464370951;141.10395279210792;1.0927608153901078;1.1329945722098838
133282718;78.567011102305671;174.10135691909878;141.11528319335659;1.0924883549637163;1.1324930317961051
133282750;78.7890547851652;173.7270416238409;141.13050362125003;1.0925325555058087;1.1317346326242874
133282796;78.548769871269073;173.65421078029033;141.09792997402721;1.0922500668493522;1.1319915695295053
133282828;80.180678550239847;173.75952304454734;140.28888510158362;1.084844219554201;1.1176654303944631
133282859;80.389833594521193;174.44339802152905;140.31346212982214;1.0830025678562114;1.1140316251339539
133282890;80.527421230714893;174.26271993686854;140.16137637975481;1.0822551876750988;1.1122302521952268
133282921;80.907170023654814;173.95138934124555;140.02483258283021;1.0816800620997245;1.1102111001855382
133282953;75.9101227558338;171.75759469101928;139.81673771571627;1.094120230495331;1.14931731727765
133282984;77.742776339484251;171.86110117683793;140.82500812259636;1.0909688776136202;1.1348042744675868
133283031;74.839054790310868;171.31793656567709;141.96448257652659;1.1030069568355687;1.1545220702849441
133283062;74.42485789345163;171.76291479897876;142.29062395481449;1.1042608628045021;1.1567893605199557
133283093;77.611384074393555;172.68178572717338;141.08290799114607;1.0909786282228462;1.1344693358750979
133283125;78.235802133372147;171.95396003078338;140.95638531420426;1.0908085491060393;1.1320800068769843
133283156;78.596147705849816;171.70143748044913;140.99253950702934;1.0906100487687138;1.1307610755160902
133283187;78.945159230757724;171.15067250964165;140.86941165851943;1.0906823026064203;1.1295239095766543
133283218;78.7542369217104;171.78761655740442;141.16817004323363;1.0898792247849607;1.1289375900466492
133283265;74.534804694125341;170.74264108646122;142.04207224401327;1.1040766594887028;1.1580118255331506
133283296;78.0037814342943;171.72319340072974;141.49246341133329;1.0935297082663695;1.1353070468979023
133283328;77.954950487938476;171.50153387253229;141.41666930913087;1.0923462966886366;1.1339437147077764
133283359;74.534603421966992;170.31993324529134;142.08331272169991;1.1046520927319958;1.1573528081535449
133283390;76.927950525441034;172.46720608946225;141.40326991659853;1.0950091028543105;1.1403615038230321
133283421;74.517653528176908;170.68790641335849;142.02670661780931;1.1043821458785683;1.1561007412929565
133283453;73.8950876818448;171.29139275741176;141.85509216370338;1.1062195421857115;1.1595418612483677
133283484;73.4531653660732;170.76493454438983;141.82259712719522;1.1070999113446012;1.1619887199623624
133283531;73.1649670774538;171.22106741546085;141.92467745878028;1.1073371812369366;1.1629632386390552
133283562;73.026230055183959;170.65757443841622;141.92100452965482;1.1076370972470044;1.1635064833656788
133283593;72.889129427234892;170.73132047361506;141.79521039821927;1.1077478292486376;1.1641653142419697
133283625;72.605201460900716;170.44052785467494;142.00764054743476;1.1080542822116737;1.1651029495285992
133283687;72.413406565715377;170.327904840278;141.91040628688435;1.108295107955894;1.165989310084522
133283718;72.340876664876433;170.37212509848357;141.72743236068587;1.1083374768839784;1.1661282772560337
133283796;72.846897810922528;170.32387926790577;140.82462191259549;1.1035125328922859;1.1628798898533195
133283828;72.929323335164312;170.92056957287147;140.91968278822688;1.1030017284359868;1.1616358214365457
133283859;73.591108190099789;170.80565772574329;140.647600002412;1.1012220825226327;1.1594615950654343
133283890;73.382466241068286;170.53325746701285;140.9924978135868;1.1040576992592643;1.1619186405516095
133283921;73.3502726216217;170.33422908525256;141.10785364739735;1.1055243327167403;1.1631696648537411
133283953;73.8841085072141;170.49865846841954;140.53421589451907;1.1031045545235134;1.1607488347058443
133283984;73.7042821762604;170.19522743303858;140.7604960223274;1.1046822093134;1.1622743450481579
133284031;73.614851001789432;169.57567573779306;140.91831995127498;1.1057904883414145;1.1631062435775794
133284062;72.981617953382511;170.03479467966784;141.1214554225453;1.1062103087066313;1.1649064055815654
133284093;73.308864092974957;169.50173338122582;141.05136502642819;1.1047867587090978;1.1633975579101288
133284125;73.562853560814887;169.61786024355109;140.79967822057478;1.1035647526395989;1.162150659585951
133284156;73.34150867136043;169.47280111247224;141.01580467529888;1.1053797506414811;1.1638634342517835
133284187;73.086179841254364;170.66792997943813;140.2289263347366;1.1027696985137248;1.1629553067618283
133284218;72.939095265232979;170.81082217084085;139.88743288647032;1.1012625788835644;1.162506327065193
133284250;73.23559946855913;170.719525397394;139.852232856436;1.1011709341035738;1.161838724955657
133284296;72.9139826823012;170.972648380434;139.93643727444842;1.1020350487207802;1.1629906833618389
133284328;73.159951759935069;171.06826150486828;139.79647265055513;1.1018023030844089;1.1622948753302689
133284359;73.2980910063764;171.10605540971562;139.75661425041508;1.1013139693124672;1.1618110953555063
133284390;73.181757060787149;171.23563879305598;140.06258415107621;1.1024335017177993;1.1627079415924877
133284421;73.092449695457319;170.9789386377189;140.20415090651747;1.1037169758961509;1.1637366868433237
133284453;72.930985002690591;171.42581135077097;140.43468051061262;1.1052502939325239;1.1648232922980766
133284484;73.394676576663031;171.48043014387514;139.93493647392378;1.102910784689024;1.162525381639133
133284531;77.044368058655323;172.38284504566349;138.3338906840979;1.0878548152577052;1.1377713490019707
133284562;74.454712055673866;171.55699091269523;140.09515753091097;1.1006116113725335;1.1557190029947237
133284593;73.402840678159208;172.44776505113811;140.40785872224211;1.0987935027076254;1.1576260365068387
133284625;72.618213976477378;172.41892876422529;140.80770994854763;1.1012770832913414;1.1607449236152772
133284656;72.243526566151033;172.12832776352391;140.76370563283504;1.1030554055268844;1.1625675104970239
133284687;71.765997642972508;172.25093744478741;141.24011844376054;1.1043384247475938;1.1641296609695981
133284718;72.164548246002127;171.96261438750818;140.4826323816408;1.1000262566942591;1.1613590104904044
133284750;72.954024736900223;171.11172509579575;140.03411094886428;1.0991559254369254;1.1592112800823031
133284796;72.8900321224101;171.04114262473766;139.694449993422;1.0975400819465839;1.1582922554393673
133284828;72.943231120656364;170.80191444145783;139.41262478341361;1.0958745822958078;1.1566879453513859
133284859;73.148814061148357;171.00083961373446;138.98600446916873;1.093954622443202;1.1549084997051662
133284890;72.725819536099564;170.4844552199242;139.18146531364874;1.0959172355524227;1.156914682776661
133284921;76.791096780304571;167.33386350501968;136.70802028884464;1.0754611949389636;1.1276504395043328
133284953;77.556479554566138;167.40948929972925;137.3294718991948;1.0733122908135944;1.1212615056959459
133284984;78.488821160881514;167.46742123725241;136.5568791739056;1.0723561572692941;1.1199718035246424
133285015;93.1524396623629;132.17470301178156;129.08233843260516;1.036422492327675;1.0314847417932938
133285062;96.420853266953614;141.30553922555646;129.32383496862047;1.0352021174605608;1.0181211162436161
133285093;104.57736305322193;138.53819188242039;126.46918210507701;1.0267980609699421;0.98713382167897978
133285125;113.11394826331504;127.17951848772553;126.62008214169379;1.013945506469349;0.95124309623120618
133285156;116.70257137436819;151.582535947014;127.98749546884713;1.0033846699719409;0.93615890465332918
133285187;106.91058951488428;163.03596364725684;135.48112499220764;1.0282439226536335;0.97286959972367359
133285218;128.90224932910067;151.03696786311789;136.00583926460072;0.98826881309090575;0.89719498140368215
133285265;124.74435961847816;164.29982608135302;138.65909889974057;0.99067624532145093;0.90664030238597859
133285296;129.50471697154285;154.41134652260124;124.21391395952087;0.9876771659320015;0.90953384322854558
133285328;143.6425892870557;173.09061175885236;113.27856985176798;0.96888070712445107;0.89002934952510693
133285359;148.96812577180035;172.98795993021886;120.51424456496326;0.95783769151794529;0.87409698426581051
133285390;148.28634185134507;171.43791966149843;121.61999227941217;0.95862885331199765;0.8727076715822093
133285421;160.22380177300215;171.96077470077978;120.32522943374603;1.0138968770015964;0.85389611972367285
133285453;159.131268994667;176.05017852197665;130.40490429504581;1.0035643441935742;0.85149966677659061
133285484;160.25574313670563;174.762126645657;127.1807715965688;1.0050105968862573;0.85500546076141692
133285531;160.56392205348374;175.00760197998562;126.17239336950766;1.0058004149857827;0.85781609421550364
133285562;160.568661221665;173.70500749969753;125.56908703764073;1.0063381495441206;0.86061484328805349
133285593;165.62737715393109;172.71316997383531;124.92610542259116;1.0067614105356526;0.88232023236752133
133285625;165.79526143533889;171.89417344417041;124.55934448186163;1.007456346099779;0.88598351903048955
133285656;157.59570564502678;161.03609786827082;125.53703415519131;1.0053319688785862;0.88953717848054448
133285687;166.072606939861;168.73743845163818;125.92808176428996;1.0041896491388342;0.89815345299437033
133285718;162.90120742217911;174.13580373113143;125.99989733512238;1.0037039025238284;0.86704237157248165
133285765;163.01152366730238;175.39605927361248;126.35390575559181;1.0028385483913589;0.86688137718751679
133285796;157.68488490541157;159.3549262694691;126.53072972358922;1.00220627558282;0.89036030672545285
133285828;157.70751066427553;158.82879191731448;126.66327599491621;1.0016225651637012;0.89038249183743645
133285859;157.81532557234408;157.865264574575;126.64849758150024;1.0011872031057165;0.890232318781726
133285890;157.86313892491697;156.77636606457497;126.62223103508327;1.0008758103944395;0.8899318189349168
133285921;167.35259273701058;159.55545757038644;126.55257880541716;1.0008540237477652;0.91715186875658006
133285953;143.32372308667144;168.28107385766359;145.1851213081203;1.0211561940353719;0.95662379738917991
133286000;143.69578053337861;167.08474374681785;144.83973682008542;1.0206559711735552;0.9570299864393953
133286031;143.36414469818507;167.42183227575123;144.86571702904325;1.0203097611946761;0.95773568138491483
133286062;143.48236973439725;167.58246421136022;144.60396795313443;1.019956405668268;0.95996824523633539
133286093;143.5327953164136;169.8826933336783;144.44688053004924;1.0193685069312692;0.96227697919435129
133286125;143.89228586604222;170.41817806418987;144.28147049341158;1.0190089578481483;0.96315871254134111
133286156;144.06645054046575;171.57154697940894;144.31248550271889;1.0185124182896861;0.96333278662539756
133286187;144.46657225089143;172.29568497542053;144.14916890933279;1.0178974974909452;0.96326097383905585
133286218;144.51326033614839;171.93128669809229;144.06886791424327;1.0176982323600214;0.96336343174208972
133286265;144.49494035919079;171.77811856769537;144.08719958858123;1.0175729603820407;0.96348071009434944
133286296;144.32855204595165;171.68552601147826;144.14257098340246;1.0174971963348125;0.96379510830524018
133286328;144.31560332693016;171.44773531949352;144.12574290860061;1.0174674744004217;0.96393688532976307
133286359;144.36156029829263;171.58905555598113;144.06767394041341;1.0174642654234993;0.96404600979098953
133286390;144.56683736061638;171.40857684750907;144.01025266492434;1.0173973667332974;0.96378468703454945
133286421;144.48271018063232;171.44143431525407;144.22220444831879;1.0172769220213536;0.96369158119755394
133286453;144.71244602212894;171.19657999978287;144.22976014926127;1.0171175852613716;0.9633217958525857
133286500;144.59584651409691;171.59525461100776;144.34157598556502;1.0171661407067436;0.96338272799678537
133286515;144.29923530854262;171.837779085934;144.55168990838681;1.017263322886069;0.96370436912095
133286562;144.11529020609027;171.89472614510089;144.756365908227;1.0173854440560197;0.96392352021849914
133286593;143.89930157400184;172.34965701029327;144.87360769963766;1.0175072139852246;0.96420329462440468
133286625;143.75312281487967;172.4345567210363;144.96691541458961;1.0175859971469274;0.96440630309976039
133286656;143.60501102440904;172.56577643215439;145.04386442352117;1.0177265042579204;0.96466226283760792
133286687;143.49231533058057;172.71679179347632;145.08658891124219;1.0177716550984723;0.96480792742858
133286718;143.43591644176019;172.87269045370567;145.24407229369618;1.0178283745980035;0.9648729935858178
133286765;143.37687246891;172.56717118052609;145.37781042910928;1.0178710095848631;0.96492220166164511
133286796;140.20414735469197;165.83135723861079;145.51483631483004;1.0179125450048752;0.98005109921542866
133286828;142.50698099029813;174.70304409614735;145.54296068801213;1.0180903288828884;0.96605802902268156
133286859;140.78085296585846;167.05555448596709;145.63760572192342;1.0181158176562215;0.97932194198714007
133286890;142.31124791706446;174.82748183963648;145.60073865659541;1.0182187597624564;0.966413607577612
133286953;142.49246373418393;174.67339050811879;145.53602816782328;1.0181006090117417;0.966228712851884
133286984;142.47850210252261;174.64058347758191;145.52285292372517;1.0182037399599242;0.9664123811834745
133287031;142.53614355071306;174.45314445330581;145.54107691364109;1.018191229765169;0.96643661223751531
133287062;142.98018877437107;173.79702430597664;145.50459505426468;1.0182319285263473;0.966127018742454
133287093;143.05386386911789;173.31077358056731;145.49700697607037;1.0182943071123989;0.966249834322794
133287125;143.27249763383313;173.62478428557157;145.40341868768158;1.0183292437122602;0.966229456551469
133287156;143.52984154139611;173.23225339616604;145.348514117782;1.018365265684168;0.96602706306623232
133287187;143.55210979614301;173.371512404212;145.34415858654594;1.0184104274858126;0.96613071086462532
133287218;143.61128105312741;173.01916695976632;145.4098829553225;1.0185489237052066;0.96633104991299557
133287250;143.58490283218089;173.24073093873685;145.49484425834473;1.0187417473111187;0.9665070487950953
133287296;143.55192877524411;173.52835293600239;145.51645066615689;1.0188515426114804;0.96662545200632322
133287328;143.6027466871906;173.19110587006429;145.52363021406057;1.0189673778530104;0.96664900701575318
133287359;143.67521235824509;172.59838791065158;145.53853337741995;1.0191726102176748;0.96680368176105147
133287390;139.57419569687227;157.60470359525934;145.53350712980515;1.0192736195161378;0.98752687527176308
133287421;143.52633368931322;173.27754428184403;145.84797084766882;1.0195260013791649;0.966853665880147
133287453;143.5069394584709;173.26242599489373;145.92855565703383;1.0196212630514772;0.966882110133992
133287484;143.50222116822582;173.27614703541474;145.95322813614556;1.0196519804112447;0.96681973199334925
133287531;139.28997588412082;164.97126731047746;145.94865136578241;1.0196893084156344;0.98138414998043977
133287562;138.72166364664139;162.92195255483551;146.00246161762081;1.0196839835212697;0.98275144173337958
133287593;138.90669870633269;162.91598821441554;145.95726044391742;1.0197169006346656;0.98250205549269676
133287625;142.95476081623266;174.33058647225883;146.00418132728353;1.0196511240044037;0.96634876870336017
133287656;143.09782943043751;174.12176862504174;146.11201628626156;1.0196081748707651;0.96608625532917025
133287687;143.11012593602081;173.88077256986023;146.13902332294043;1.019650719790806;0.96610366682945314
133287718;143.08956645765161;173.76329852765127;146.19827955145055;1.0196586749507695;0.96608465702565893
133287765;143.20331811571472;173.7464996372658;146.21042367076433;1.0195944497864673;0.96587396709417606
133287796;140.39255970138802;168.85412541452314;146.27938912047344;1.0196177761939365;0.97794258642504084
133287828;144.13645537076431;171.22541735372735;146.2945466762682;1.0195480666257553;0.96422917738557612
