TimeStamp;AngleElbow;AngleWrist;AngleShoulder;LShoulderElbow;LElbowWrist
132248859;13.207529330137243;151.30006012350134;38.584821742210679;1.560871174033698;1.6162348086928813
132248890;57.260540838551712;159.757286204108;79.147643502571881;1.4600489727903021;1.5708711223472796
132248921;64.131788070338615;162.89703993409992;87.543637855141554;1.46618578659268;1.5982609696830556
132248953;66.555340018573716;151.45745510401468;85.900536919139924;1.4633389820516285;1.6088914144897875
132249000;71.686654087942216;79.335070399203445;86.387540605131676;1.4654865399304362;1.6094730589942128
132249031;71.450384806498249;92.782238609652524;84.117714112057925;1.4563118140439924;1.5997926120843156
132249062;68.241254909772053;175.41401589910811;83.758408862352027;1.4475818816469563;1.6070048600231923
132249093;65.745939312180525;158.79268914509046;81.385677412156184;1.4387504644136044;1.5657653007159087
132249125;81.454684814929323;174.13178019410424;78.236050802021651;1.4315244222285755;1.4285581190289538
132249156;83.189716830910911;116.27740525485125;79.140811670730443;1.4243823986510364;1.4475337293704995
132249187;87.77622130038408;159.47303438745269;124.56591949713845;1.4915964547257083;1.4429931568703791
132249218;97.661930892456709;173.63849395191684;129.70018324880738;1.4887190501245058;1.4463455930266183
132249296;97.904466640393551;174.02462342831294;130.1371740169117;1.4849197335974838;1.43876887923306
132249328;98.868240720492508;176.66555255781219;129.54265858366748;1.4784021585891649;1.4334190809638043
132249359;100.88934853269124;178.13921457940558;129.29789931159866;1.4692810344608571;1.4255294222090935
132249390;104.63431178294196;173.0595147081421;132.98097151240114;1.457858992360745;1.4151149425461969
132249421;102.47757375425357;174.24577298300468;132.62144858337723;1.4532881018545756;1.4111170096262904
132249453;106.04284252104442;169.78781761128485;133.05509665481779;1.441997755124987;1.3978550619683592
132249500;106.59920925736876;165.2789888206965;132.51040378076493;1.4355219163628572;1.390398927082322
132249531;105.93601878866119;166.64044192117956;132.00365630948963;1.4301629130812188;1.3846605563512291
132249562;108.95554672879128;164.4198834598464;131.09520947183793;1.4186160143596798;1.372632570130234
132249593;107.47623108723298;171.48089378980055;131.10931373411563;1.414994849305635;1.3674604445034246
132249625;110.00977006896679;169.68349711847216;130.89754048219541;1.4070805437214047;1.3575935185000176
132249656;107.69479210240222;167.0025535101951;128.96383304438155;1.4038689213454911;1.3542761529318121
132249718;107.28463960868113;162.19365124275475;128.13720066506167;1.3986368068352961;1.3494195321421969
132249765;104.57206519250056;173.56037294536174;127.05503804795991;1.3896714595764124;1.3693126282860963
132249796;103.10532049994123;173.88483502028385;126.19651594320183;1.3876437796953627;1.372244620411109
132249828;103.03057118145415;165.075120747587;126.39403013838985;1.3870360052936197;1.3553533306633059
132249859;106.34865744215585;176.87642245338626;127.15912424368555;1.3829636091409367;1.3715534830729375
132249890;108.3711885386398;177.57076334864021;127.87430536858319;1.3822999782702403;1.3748845675452375
132249921;119.5542807487781;134.87835129272341;128.05327233231913;1.3792064508142325;1.4200156983807344
132249953;107.71930234299317;151.05754258011405;128.26754568621826;1.3789395738524923;1.339927473172166
132250000;108.01128784849635;154.19066237711104;127.63387990961165;1.3778862882760357;1.3370226290016916
132250031;109.45186472026387;159.8052049535589;128.99242379230216;1.3778212002126222;1.3348999699071333
132250062;109.6534373029929;163.31209371726993;129.7730733445033;1.3782399783298736;1.3339734525076612
132250093;105.94561308933638;156.29231858742006;130.91516218219718;1.3769025679787079;1.3411724097657856
132250125;106.72295401432058;159.04818683436307;130.34645407858605;1.3755253806436254;1.3355633193680194
132250156;106.90251904386371;158.48104132540635;130.65275598808074;1.3747495614605558;1.3333425649985156
132250218;107.39303495631128;149.4940651509572;130.7838630211576;1.3723103331088407;1.3297317632069738
132250265;107.96073355758006;166.98180746243133;131.27853815339026;1.3715806716635748;1.3282552549937277
132250296;107.92596266111627;160.20781262382664;132.29189665522731;1.3678544541781559;1.3271833614596607
132250328;107.40321482094122;157.08992521731963;141.16906564945305;1.3651558597591367;1.3259439596105875
132250359;107.7590872636151;154.18341941439186;142.10722431529857;1.3641278501724918;1.3242534823786225
132250390;107.70587206582707;150.29382834854621;142.45060708033984;1.3636506178193841;1.3232189013772473
132250421;107.68024303591906;153.39293696444119;142.53012275365978;1.3626604899574586;1.3215681339228012
132250453;107.78992333826739;152.73612581256239;141.80055109070415;1.3587991005336375;1.3184450407094419
132250500;108.1777006159962;154.00628451495686;141.08512896658866;1.3555515902748716;1.3155442254716188
132250531;108.13572861935332;140.79121169470074;140.40561758889061;1.3535899374181981;1.312626830289521
132250562;107.15478387695902;120.83757058775315;136.03301062085228;1.3502319240352982;1.3106952704020487
132250593;107.23914092007851;128.74073490324352;133.36801719506903;1.3497398371596119;1.309938316072873
132250625;107.77343775447125;170.98400595463298;129.21458105912879;1.3518682092646357;1.3099577667724174
132250656;100.53610628040164;168.52304247782004;129.32522183261196;1.3560852636286174;1.3349948497849038
132250718;101.19678555841139;155.76609801415194;125.01597394676489;1.3655811734066783;1.3408100564801853
132250765;101.21519174194684;146.15198703279597;124.90707565393048;1.3712817867460436;1.3462757535284953
132250796;101.16831948599156;142.80757590376169;125.08513896470754;1.3763648703638296;1.3517203599529608
132250828;103.48806302622047;140.54647075665889;124.5685447860667;1.3790663849930469;1.3559823688282382
132250859;104.3356269584966;134.25787852456145;125.08391315092302;1.3815023648686229;1.3594376860767639
132250890;107.05328680945212;144.77880983004141;127.84578826834762;1.3826567074400709;1.3842684513663282
132250921;143.4616225963895;99.891926198252534;128.40331959669942;1.3854467288943984;1.4750975823830719
132250953;141.57200332778368;100.88303081116236;128.13505619724921;1.3887234780937994;1.4728374044213866
132251000;150.23252882372438;91.959729155424782;128.13182673036289;1.3923720163186695;1.5021386156584702
132251031;143.89722840728007;98.681533332560932;128.45891407134519;1.3963875943360125;1.4881835760241486
132251062;140.29581074804534;103.36990543666016;128.75312728090236;1.4014648190070318;1.4826786347962186
132251093;105.02308584054148;173.48924719940288;129.07324630311365;1.4057365471458885;1.4425715818141842
132251125;109.98287375476741;150.03894854530725;128.238659229258;1.4104615329988117;1.4180986803745936
132251156;113.16012705142155;148.21465891999884;131.07390382783117;1.4167541891693989;1.4176639447406805
132251187;113.96293071504951;145.59453057551934;131.1720862811014;1.420938988670315;1.4188968115120235
132251218;116.19376654160114;145.31368624453276;131.03873960091022;1.4231223929771113;1.430158363913794
132251265;117.36816574816517;144.586769433122;131.12176375824893;1.4246924066916948;1.4335696464890142
132251296;150.10891305361071;96.6591011771722;130.39302306820736;1.4254796002548977;1.5227864913936453
132251328;151.59871183315457;96.298779954156487;130.48439874647747;1.4277982583663227;1.5205873603270366
132251359;151.50865189350398;97.569675686818158;129.79871511537058;1.4294635912404898;1.5192708336993976
132251390;151.8606515671801;97.08300842467645;129.13512126129049;1.4301214336426806;1.5203599960874572
132251421;134.61110476253703;118.46960486568867;129.02339015897397;1.4313536592433915;1.4863594328776619
132251453;130.29497309809975;126.56074963264749;128.78088971533586;1.4323715668449204;1.4753524204109052
132251500;130.27154722646066;126.5323504301937;128.59043244888761;1.432487121063585;1.4758277247403917
132251531;146.59664670868071;122.91046683614663;114.14007141453836;1.4216417677132196;1.4743374850760818
132251562;145.70308179099303;124.53781270234727;113.72399247858577;1.421087465147576;1.4719530560163
132251593;145.928783389154;123.97106516162229;113.84043928018421;1.4205582368472194;1.4721409325151773
132251625;142.21481774603271;123.71979620137687;120.32667240175076;1.4227136302507366;1.4724602117268948
132251656;140.43620850619212;124.78484626662545;122.38016463826868;1.4233450875583484;1.4713104070359022
132251687;141.66882799943457;121.4622178781806;123.46840784135388;1.4237974570017056;1.4734878444042727
132251718;140.66612462079496;122.99758908861983;124.32195727951205;1.4240954577245877;1.4713282520090838
132251765;145.95224295070975;108.97277747056718;134.92426551435156;1.4309303106341291;1.4898511389425995
132251796;126.9237175753531;138.96617036033152;136.42342098252371;1.4325054367173065;1.461403176549231
132251828;148.21950944468651;106.80328054086965;136.48132056966313;1.4327598042378744;1.4930227519268353
132251859;147.99341024080454;108.45337542420769;138.37642571972637;1.4344621590409514;1.4946444235559269
132251890;147.0917391699528;110.54428673954836;139.41097267203566;1.4359979537937597;1.4956359219648767
132251921;154.15455033145653;102.95112794736778;139.3153529547443;1.4373112386913614;1.5084630907709431
132251968;110.614079019996;171.13425979731755;138.94733559415215;1.4384715695896295;1.4478934082613479
132251984;110.01038461161404;163.00017386025374;138.82017789350715;1.4388712733881262;1.3974641367176717
132252031;110.3103370675281;165.10846510876431;138.44987284157162;1.4391438705074353;1.3970764014793475
132252062;112.353045362638;174.46922812169535;142.37761010723759;1.4495316005603565;1.3813670490544459
132252093;113.72873107184623;177.63261612764683;134.6531407110964;1.4415887755750863;1.3866306524113066
132252125;113.78743570864077;177.59693203778551;132.67279201777444;1.4395160949867949;1.3849832416582564
132252156;111.07306351490453;175.09771495387088;133.60797419904583;1.4434013441015494;1.3767053774041247
132252187;143.89233485708616;169.24798911836567;122.35192560555383;1.3862353999784058;1.2892531032371981
132252218;142.47968680600243;164.84181018817188;122.35340019047635;1.3830094723098596;1.2779461250692983
132252250;105.28616465858092;177.62244989211121;136.87286100765502;1.4567018303304709;1.3656063693889491
132252296;102.49013107263224;173.83908349285784;136.0046697384922;1.4569539301396517;1.3661013623717637
132252328;98.929743772463269;170.46188534412283;137.86108542868553;1.4585548089661309;1.3679288025653968
132252359;98.438166633429461;167.47770403744744;140.9520383024651;1.4571229474930243;1.3637913402289073
132252390;99.852288662268464;167.08494515479114;141.54035960184621;1.45760841636876;1.3652256990148368
132252421;99.095959817748962;161.74572936578247;147.94618878366751;1.4566966172658884;1.3574431873096751
132252453;97.310513395051387;167.79163827279811;147.45602092797154;1.4528820229379174;1.3570159664523949
132252484;106.29423420655907;140.75212577578171;150.35951239432362;1.4489556822641745;1.3530540574545655
132252531;94.656833926672334;175.91360297353288;152.24470513742247;1.4419828819880118;1.3657400249979532
132252562;96.958798149430791;174.3175850734892;153.06340393622307;1.4388306240320021;1.3611445561162838
132252593;98.163077681281166;169.95589441990506;154.46477132369844;1.436710018108508;1.3577314728987744
132252656;97.452991335555765;163.14077211882676;155.10828950530546;1.4353589304712968;1.3546793994359256
132252687;101.05093962809156;168.165750266266;151.28703569280691;1.424005090383393;1.3504638572090335
132252718;101.42136453415702;168.29448466799533;149.26558108806864;1.4223459431936025;1.349874161736681
132252765;101.89252997481374;169.48198982652025;153.37248614228554;1.4264067237541644;1.3444613068663831
132252796;102.08198458472712;168.69398366561069;149.71481152931489;1.4228189252550267;1.3493759903242992
132252828;91.814404280268789;142.42412230290381;146.55825665916257;1.4214477603471123;1.3947971842554574
132252859;100.20543543731195;174.01297107842046;145.21813041554978;1.4212599929150909;1.3596305618109819
132252890;99.55988787453451;172.62751425057851;144.61892221466624;1.4213200177139873;1.3618660680988928
132252921;97.881724779961615;172.16305520584623;144.09643936872169;1.4220012132378952;1.3698414905561582
132252953;96.906823292924386;171.04130524532818;145.12120700305073;1.4256817953414509;1.3707663244100774
132253000;99.61267968432864;170.59337473577344;146.41843516826481;1.4218782151695462;1.3677444017838354
132253031;100.51935909025117;176.39754738175861;146.58104231606026;1.4229804078675574;1.3612141456443851
132253062;100.8783625503622;177.6558442374421;145.87055424347113;1.4209120231754495;1.3553157775431415
132253093;95.464786421215038;132.43909652372517;144.91313610946719;1.4205717873786603;1.3246987905514409
132253125;96.2744984203222;140.20973986586557;144.50189747648409;1.4192991067565162;1.3317255235229197
132253156;100.64350238239418;178.56392190734891;144.05669262013652;1.4174234122832494;1.3577642726883765
132253187;139.22596186251562;172.03075191524385;133.0863529071739;1.3835896207004623;1.282793614210908
132253234;96.134450718439467;173.9845168033265;144.107448485934;1.4164535151941142;1.3927489795130521
132253265;132.57097342493677;171.06335777961604;136.85601996564208;1.3742365541440695;1.2813529868246147
132253296;132.48025361047618;171.2050214671562;137.5761446586198;1.3744432652665863;1.282740320019059
132253328;132.57907568542069;171.56857132671428;137.77741288257192;1.3746237871921052;1.2837833122755877
132253359;143.73541270074156;175.27622568091826;135.41573952891733;1.3748085930051344;1.2771542369053246
132253390;131.58750277605978;171.81088066898769;141.02810500900202;1.3771603748873857;1.2892670154308477
132253421;136.64648853523775;175.7175185022173;140.30904222036148;1.3760218703938039;1.2860911976085581
132253453;135.46527998086762;175.27947642328604;141.4271330348823;1.3769199017400504;1.2877217935618879
132253500;144.94155839411954;177.62324841763874;137.23643582798962;1.3743066796576511;1.2812720672582909
132253531;141.52638192265977;175.3641812975311;138.35385512211823;1.3772685767018762;1.2867326879752445
132253562;129.01667855856834;173.35222473711229;142.54447865198455;1.3746282065451949;1.2957836799765639
132253593;102.40434365157641;171.54858838514667;153.20574224236526;1.4163875190107091;1.3946875486382988
132253625;125.50213342759264;178.58458370532952;150.0953778157764;1.3905738682964728;1.3190724749383702
132253656;141.87265040273252;176.70558582449442;143.65044918278875;1.370680828660614;1.2796477302632243
132253687;100.38905147664285;172.3261819206424;148.52401237590038;1.4104281597594872;1.3965719937468533
132253734;96.599959310852171;178.23954831930922;149.75875815762925;1.4111265711495953;1.393469484258691
132253765;98.625904317952447;179.66558922388333;150.75253705400809;1.4097908425252588;1.3886519145836871
132253796;99.0167563915492;179.79112172816153;152.94679504827812;1.4096928405812126;1.3872456548575989
132253828;98.691385651116633;179.05101104918305;152.97590967449344;1.40958497986912;1.3874902550122821
132253859;98.4629222305488;178.85301696305231;152.98442619866668;1.4095839063569411;1.3878897493301965
132253890;137.18959931668385;176.48465369629025;140.90595784306586;1.3660298559051318;1.2811477594018681
132253921;136.54580714448963;175.38092822553742;142.4014128142683;1.3655682774437243;1.2796770720670612
132253953;136.32240460909804;174.28100304001333;143.66912718918479;1.3657627698137067;1.2796593572622015
132254000;150.82118988089309;145.25440984635131;144.27567676694315;1.3654846034148529;1.2857331736406263
132254031;135.30442643015468;179.61201468625805;143.61243262341466;1.3663206111695565;1.283305278899346
132254062;154.61862734725347;136.06361284783205;143.87663191084579;1.3661245827860198;1.2937255858963916
132254156;165.3894052956924;125.87069391368108;143.66578519534116;1.3653934038611371;1.3204273268674647
132254187;161.24830395332168;124.88338278761496;152.5810211422295;1.4059095301080513;1.4431679150477665
132254218;157.06400185964756;91.234364272686037;153.01262681712234;1.4071172389663811;1.4347284041422308
132254265;155.9514696082687;93.674086731394254;152.51488473075324;1.4075860970332159;1.4376533212085643
132254296;156.12933294160345;96.2021840334649;151.9721609233435;1.4075859911019051;1.438445207455856
132254328;158.6105720282587;144.75669509689985;152.64192736081435;1.407545128875529;1.44334669982732
132254359;148.12549403275185;105.73108992048384;151.77813112341633;1.407401975904564;1.4273968009072142
132254390;131.89711257110176;118.35673704232463;151.45643313435062;1.4070650787818653;1.3976613236794344
132254421;136.12164471999085;176.2359748746847;142.27209577568263;1.3630763888997679;1.2790680652691466
132254453;135.46605351325189;176.35560573113324;142.95937629268897;1.3630240141627474;1.2803261570999853
132254500;135.95554636306829;176.15264908100596;138.62900177359254;1.3635584023633998;1.28134257944659
132254531;148.56269699778497;148.55916811568312;140.67544347572363;1.3633795856980062;1.2883149750893175
132254562;135.84194328760361;176.64353250299351;139.22941071165977;1.363227739520948;1.2823343059582328
132254593;140.41998778306908;179.07484785276907;138.12598336617259;1.3621120150523809;1.2784959057898711
132254625;161.84279202913021;133.29692768644355;138.96765255720982;1.3617602370984523;1.2884562354623201
132254656;140.19331562399123;177.78829287219776;140.24111861413741;1.3618639436804723;1.2779970082838967
132254687;160.84855793300383;134.51035142324898;137.11488355245638;1.3621638051121985;1.2887619824047449
132254718;139.90357862096602;177.67089753975989;134.88957656779115;1.3620019234181955;1.2779370434068667
132254765;139.19561742628207;177.29386404047605;134.26760609910778;1.3627468204014319;1.2787891218594236
132254796;160.4959084713966;133.70829177863837;137.53487824006754;1.3620139818090358;1.2886681758923635
132254828;167.32525499713083;127.29989099101526;135.56753710755783;1.3622407007605286;1.3023179843233375
132254859;166.53571100464944;127.16124986204567;137.57428710538437;1.3617153048327262;1.3021405329121552
132254890;168.14047505821563;126.516518992263;137.23883440442356;1.3614992766769596;1.3010971803064335
132254921;168.22202599309375;126.3664850024022;138.53515022265944;1.3617065514218019;1.3005022961255808
132254953;161.67082829519734;129.57811399380762;140.41673755291657;1.3643089362630929;1.3095900873786561
132255000;160.62883174987297;130.63162425119026;137.8079727897964;1.3631784688072177;1.3116042016763516
132255031;162.91050676037821;129.06582792257012;139.66161500646754;1.3621328989132489;1.3083739785027191
132255062;164.5258907185835;128.52532657101034;136.13127737005456;1.362607848301884;1.3076811826738484
132255093;173.10567855420513;123.33336298176648;136.81554334822064;1.3630065769672508;1.3213745844842015
132255125;174.71358431248373;121.30496910166087;137.62424617996786;1.3629445214115863;1.3193424318889522
132255156;139.77275796717939;178.71138812540403;135.36301245502492;1.3635055049477762;1.2821203966837786
132255187;167.35609679577021;126.06037553336543;134.25971198997462;1.3639570184055829;1.303710332047239
132255218;174.14743135695585;121.65820627520766;136.80908210399059;1.3628238966137181;1.3180247715260109
132255265;139.99647004608943;178.35987691429591;137.76291970099987;1.3628284164959186;1.2807942669556744
132255296;160.45053221751712;135.08577090307767;138.87363754959003;1.3629681501953956;1.2915817578772533
132255328;160.14848177111207;135.33825076259419;139.20015209743229;1.3629535905454926;1.2912125467030671
132255390;163.03191040495656;130.76106696219551;140.38884435270649;1.3634690710909112;1.3082180248246216
132255421;164.40846046276761;129.57783106254445;135.81327914676152;1.364053399455468;1.3089039879521738
132255453;171.44894331307552;125.87187358018311;135.59941555122131;1.3605487692826654;1.3003255653014465
132255500;175.97044256490366;122.55047782202084;133.87239697597985;1.362581891094556;1.316273768939884
132255531;176.26120995487071;122.45690201101895;132.29926205540539;1.3631188397639187;1.3168543955369674
132255562;171.0968999927313;125.78704685966117;131.90308243196736;1.362928916095381;1.303510487214957
132255593;174.68297332682181;122.9063288160945;134.69762499506015;1.3628933018706242;1.3143393481752717
132255625;172.83584566653849;124.04777202787403;131.123234296529;1.3635537869896435;1.3184489747815587
132255656;139.49866757543006;178.12094320459946;131.12844379568719;1.3637563904953094;1.2838404870212934
132255687;139.29432233264487;177.89023272730788;131.18242009981347;1.3641027887865798;1.2841538855084809
132255734;173.07754396163142;123.06941832485714;131.13918143119787;1.364206834237458;1.3224645212925925
132255765;172.32879503642897;124.04772116067841;130.98637080715366;1.3643472323498982;1.3209855087753946
132255796;169.77086050608298;125.52357357321311;130.14001625088798;1.3646910696935541;1.3064511355073263
132255828;171.4019896427755;122.89615619261322;136.38470175424061;1.3631439054730288;1.3194730818376941
132255859;137.054171069824;178.71776830897238;135.39369852466658;1.3643256401915556;1.2866500633889932
132255890;168.29167616410112;127.15655052821879;133.02720853901857;1.3647351279172728;1.3046520611875871
132255921;166.92623229220496;127.26082787320618;135.84607274631424;1.3651008490316077;1.3055826827573192
132255953;174.18970075422996;122.64001436374805;133.59419100971678;1.3653365418097381;1.3197162711400492
132255984;172.40204776820283;123.66215150726886;136.4760257066603;1.3651295815315141;1.3185144351562455
132256031;168.58738261560998;126.16637738461525;134.86478417416683;1.3657138836143192;1.3101749407340091
132256062;168.61866804113933;126.46861610979595;133.77109272657879;1.365901455823505;1.3100188352851956
132256125;168.23265263278634;126.55380170464332;133.09856914704361;1.3661269883038847;1.3097506958479679
132256156;138.47234351284607;177.83985021781444;136.0361669799106;1.3655815834310869;1.2864567619710454
132256187;159.98928541038546;136.52784433200756;133.83454179953347;1.3663394069781585;1.2924185176399545
132256234;169.05073333024427;126.10278342298737;132.27282225916119;1.3662409594344269;1.3061374408539808
132256265;162.63857358214696;129.32252373897438;133.18622789480884;1.3635090966894532;1.3151674286882857
132256296;134.90335718128125;175.78450399675148;132.75872477606427;1.364060277325061;1.2904587035995725
132256328;136.12146127900721;175.84874674962387;132.38673971417265;1.3646187012209439;1.288710409374098
132256359;170.44489540837773;125.23502217770823;132.18929923444591;1.3646678033295792;1.3258899577268042
132256390;168.66209836148991;126.39750539888608;135.57790886476352;1.364509015892144;1.306451724849464
132256421;157.08413771917708;136.06400286332013;134.60516528325002;1.3667815512846986;1.3003023032639871
132256500;136.34478470234987;177.53249105479793;136.96614220312057;1.3656630997974903;1.2914896107294167
132256531;157.17002355749713;138.1202637727441;134.98980811814548;1.3659506662016834;1.2979564834192716
132256562;165.1680468467849;127.93201728246065;134.38626179360134;1.3648683194551197;1.3092624427471689
132256593;167.8596114081509;127.04435575514488;136.97788280834882;1.364807263397358;1.305030949456679
132256625;168.1857597130716;127.07543550895875;137.74585871864855;1.36479791540745;1.30404020848565
132256656;168.7627963090797;127.08363494207808;135.02523039301318;1.3655162208150469;1.3043041569526483
132256687;168.21875190609117;127.07009197442159;133.605688675581;1.3654429289749781;1.3054422834453507
132256718;174.69449898736508;123.3073517004769;132.50178333755844;1.3658249849451749;1.3179976167760177
132256765;169.32588868381794;126.71389932467174;135.3667210480059;1.3650413891790825;1.3055955723122643
132256796;140.29507336983079;176.192303899094;137.30276736187372;1.3650605745848741;1.2828735750062135
132256828;160.58984448293379;135.05798657610743;138.73713917773853;1.3644504667401336;1.2896482364659729
132256859;166.85824667038793;128.16760134812606;135.95165942701428;1.3647795280128143;1.304470384993017
132256890;167.45665077129812;127.53167340609613;137.61696771866298;1.3642331579516327;1.3037106914115064
132256921;162.72793612803906;130.03870735088324;135.9381890597663;1.3669278536821061;1.3114285192318615
132256953;169.71884598283725;124.69365007704261;137.72385136011974;1.3660513262295955;1.3249499178333068
132256984;165.52372713420058;127.32953280174404;134.96359237818888;1.3664661859161724;1.3116291956855177
132257031;165.20728215234831;127.14903048152304;137.78269849553948;1.3659794439150168;1.3099882208050466
132257062;165.4421755543936;127.50795313112343;135.32812055981106;1.3664003759808112;1.3104175059208449
132257093;168.55288565310818;126.45067298123911;136.76028847052115;1.3647746025170249;1.3054506356389874
132257125;168.93175317125258;126.59316839725263;134.29553299952443;1.364744985450209;1.3056402344138292
132257156;169.04994845961946;126.8717660789065;133.40961232112278;1.3648368590659126;1.3057414024760807
132257187;162.38338685791879;129.67830661287596;137.07447519109752;1.3673988781065827;1.3138242958473161
132257234;169.34460273897864;125.35680954337485;135.22616811822226;1.3664360477358433;1.3250679855591381
132257265;170.90300671357247;123.21074543704376;137.54189854050864;1.3655776476765331;1.3236308181214644
132257296;170.62557299411557;123.57548240493388;139.4915094876412;1.3650799980569903;1.32291189172557
132257328;137.19555956355433;177.49078831902691;135.14563585796932;1.3652493571332394;1.290187012022425
132257359;138.30065382703617;177.57802991266709;133.89668338172305;1.3659026343125771;1.2896092162949648
132257390;159.77367970589023;135.7074162490286;133.40150596467009;1.3654521615875477;1.2947611512441195
132257421;161.59429048578357;130.91368671664566;138.47580395984468;1.3636236025887913;1.3084459781785631
132257453;168.17440916499228;127.79822040640504;138.50034010246012;1.363309570365318;1.2996715100724958
132257500;136.05995337351632;178.71188855493952;136.51141355394671;1.3659172050113726;1.2947553375555516
132257531;137.19746121168936;178.43672721050785;138.69940576463662;1.3640215273034191;1.2898071358324186
132257562;137.13549856948194;178.23294089231382;139.42985918730852;1.3636586263754869;1.2881839250681291
132257593;169.00053311528043;126.52377647852826;139.13529299298978;1.3630605417917552;1.3129834134103247
132257625;167.50544312501859;126.7864176512832;140.14713700737602;1.3625824780960023;1.308532724769168
132257656;163.23920657085955;128.94862401184784;141.47267815070194;1.3637131600723087;1.3128239896419398
132257687;167.42791939740275;126.03510796463252;142.01850252342325;1.363487630707904;1.3201044626843685
132257718;166.50147647810348;128.85268023646148;135.92178293676494;1.36439851957056;1.3123574088911962
132257765;166.58336215423591;128.34421121041967;134.39221208508317;1.3647142884688239;1.3099190569104433
132257796;167.44932863996192;128.13949009113071;133.30517993297602;1.3655135898927455;1.3085775741864854
132257828;138.83940426817696;176.1510691128365;132.68414848168027;1.36570387300827;1.2875253659100949
132257859;159.109004413379;137.94974651411573;132.51181293520162;1.3656126577242913;1.2922511421774792
132257890;167.86529041803917;127.61998812760473;131.86162386081278;1.3658487883972397;1.3059972558199031
132257921;167.8537105273758;127.89947231891708;131.48263797873139;1.3657717897149169;1.3060719712171933
132257953;167.19817574785373;127.65968756648847;136.39933841839579;1.3648680488708798;1.3050053347431962
132258000;168.07174089218404;127.54222284705041;138.46363653842226;1.3647716131611276;1.3031370101619231
132258031;167.259953170439;127.70633571669823;136.2333499119388;1.3650146298314043;1.3044780949342536
132258062;166.9075819825834;127.36499924548596;138.62956307764193;1.3644983517775451;1.3038823663039705
132258093;166.46765114547571;127.31724371994748;139.83957376739105;1.3643428744726316;1.3037609615958161
132258125;167.03257693853365;126.92896109054789;140.38929310271217;1.3643017607857175;1.3029813992318948
132258156;167.8998505220849;127.09040876480586;136.00609303061819;1.3645056836735412;1.3038380617834879
132258187;167.68931018038111;127.28730964545164;134.48115929127812;1.3650246646832125;1.3045923932853427
132258218;161.91330914024402;130.53798594468742;135.3828825477049;1.3630432614288286;1.3116228756019239
132258296;153.58973836685476;97.131738827145512;147.39472955045886;1.3992112061775597;1.4114660727283022
132258328;168.63011666530576;130.0063921574492;145.18932205151268;1.3990341460861033;1.4437499761047605
132258359;167.31028391584761;129.80620026068343;148.01092626301355;1.399203083829542;1.4430302532896164
132258390;152.45851729434014;100.27824391577958;145.16423426562557;1.3995845119813302;1.4107765656482245
132258421;171.16921291323783;141.68714285420572;146.46348664465683;1.3988008640247696;1.433952679528316
132258453;171.99881710314264;137.09787861163403;143.93446256655253;1.3982821390785474;1.4345427512508329
132258500;169.21484849116339;136.54945991018283;147.24729008186984;1.4000217875668284;1.4364452735983959
132258531;170.22924282467596;137.60018266468782;144.38343910475589;1.3994082921324538;1.4371017573786444
132258562;168.077009092159;135.50944169826454;146.71793849129384;1.4008664864808249;1.4420580677311814
132258593;169.15132999545409;137.78784552488432;144.59962569726517;1.4001524892698867;1.442038323126428
132258625;167.38256207130212;137.0403214898563;148.19587237921536;1.4012235513359403;1.4419484312438473
132258656;152.80914115136886;96.3875845729259;148.04667605606676;1.4011532104183013;1.4081901767204592
132258687;152.80951230047478;96.531081051830014;147.98377001815368;1.4011197516973142;1.4081123813815124
132258718;151.33981146459789;96.5997915202498;148.28654033134106;1.4017052944412451;1.4111396199167066
132258765;167.58547185284715;126.71105867502293;148.13318376050924;1.4015176935961931;1.4457707850872257
132258796;167.73956960056032;128.24676585503786;147.9379016577488;1.4013531596047106;1.4451760907433304
132258828;167.85916679025104;127.74257231381064;147.85610617311681;1.4013408098060389;1.4448301657883946
132258859;167.78845818119135;130.26551753864968;147.83452691429363;1.4013456929917765;1.4444007999247
132258890;167.86822442329165;130.79023453156253;147.85265859750928;1.4013271248123154;1.4441220616337136
132258921;167.78556631995642;132.94372075551812;147.76637171117537;1.4012021208343766;1.4434971095500331
132258953;167.81219557790638;131.60423266775194;147.77512021967596;1.4011950501978423;1.4431723317875966
132259000;168.25417825656231;132.62042014869385;147.6807825960725;1.4005997960204355;1.441836032279548
132259031;168.23408385010583;133.51421422280157;147.65277705350434;1.4005883146269242;1.4417367651484569
132259093;168.27500156852838;135.00263550426976;147.57692301488794;1.4004811096505729;1.4417000980870198
132259125;168.22876158320347;135.6505555619998;147.68686234646896;1.4004455313253177;1.4416181630538545
132259156;154.72931267527679;92.51669548392222;147.59818648045197;1.4004138282372587;1.4097834769693469
132259187;154.54843830965226;92.813646631337548;147.5697802712391;1.4003433333824498;1.4093908777519164
132259218;106.11251631567603;170.32238526894079;147.81775332785691;1.4006503176406944;1.3834987461894914
132259265;165.22427720838707;128.20017270405415;138.51931692807403;1.3629153476068436;1.3053881138943839
132259296;165.20912408607768;128.47373601316031;138.5163160507866;1.3628282706786878;1.3051928734741412
132259328;170.11684332219556;129.88118701620883;138.31614912201889;1.362631667045026;1.3284536469852655
132259359;172.97639724846218;119.85850733068727;138.27429175808135;1.3626614175782892;1.3208586900945771
132259390;165.67677277582357;127.86384782842991;138.23916730418816;1.3626108979348881;1.3028478316973762
132259421;172.69565447372236;120.09201364281512;138.25281306812934;1.3625930713928072;1.3197971749417867
132259453;166.8038007870301;128.01402095915159;137.737765904428;1.3631080188927935;1.3030172285960111
132259500;166.7581893712464;128.19516136100617;137.78028199107152;1.3629143623320414;1.3031150522426767
132259531;166.69110094165515;128.06545307779987;137.81836064255222;1.3628872761938558;1.3032683606266193
132259562;166.8171176001575;127.98188701530398;137.85707035653792;1.3627736078474591;1.3032697939596376
132259593;168.75612965442932;127.18070296414287;137.07215899188515;1.3621669942880599;1.3010709683543855
132259625;175.87902091433693;117.64722751524396;137.19575206075396;1.3622310280904852;1.3184405287089445
132259656;175.77811077001195;136.88773800875481;137.21707551624934;1.3621723254505369;1.318552125346615
132259687;167.83550973389046;127.48087055372534;137.29119081181023;1.3622333096619557;1.301597537873795
132259718;167.60561320528268;127.57865079616157;137.35761061160795;1.3621798459871126;1.3018418130510223
132259765;167.7637197651834;127.69806171803448;137.29903570563354;1.3620728210390873;1.3016361017641376
132259796;167.89664593893119;127.69812447727209;137.23099291134298;1.361884905624789;1.3015323385307558
132259828;167.68407497939253;127.74361486654114;137.20180585395718;1.3618502395274843;1.3017408889555324
132259859;174.4118560051231;119.30466623699016;137.19036577037244;1.3617813979834932;1.317923752367598
132259890;173.70612859540645;119.17652646078173;139.21833005709993;1.3613115038499311;1.3175951102083841
132259953;167.10864585729729;127.59453021903468;139.0430007932803;1.3613251333666327;1.301785111815037
132259984;167.08675711747031;127.67125523348319;139.0199562508825;1.3612830928855508;1.3018042569252935
132260031;167.04657037938304;127.70805596903374;138.95007705110345;1.3613001218947707;1.3018327715481473
132260062;166.88327447514544;127.32017811811403;140.32412472809148;1.3610083022823467;1.301512536170145
132260093;166.84358319040038;127.48933043354803;139.89260273180247;1.3610281453431889;1.3016807945449227
132260125;166.54836356224197;127.54209614999245;140.76551041186266;1.3607065742547029;1.3015167204022755
132260156;166.59463895572313;127.41663487946271;140.21832672668646;1.3608038199721226;1.3016510228296241
132260187;166.60232763642941;127.55093467669653;139.88342053829564;1.3608723157181291;1.3017398486557466
132260218;166.48990999297561;127.58796501474639;139.6607915214461;1.3610488293962386;1.3017648875386298
132260265;166.48859793830721;127.67272164581397;139.5925935623705;1.3610605032867373;1.301769659970702
132260296;166.51806414346763;127.61780786409103;139.33875195783344;1.3610879733507488;1.3019302863799043
132260328;173.15879607348012;119.54061211831346;139.14664998765926;1.3611205365701098;1.3182266297740619
132260359;139.34295515730202;177.58608594061883;138.92981386600215;1.361118146322527;1.284007970600259
132260390;166.93698722559697;127.60889962772325;138.49215380755831;1.3608835061122817;1.3014313681175722
132260421;166.93143327134291;127.64001748027992;138.44624135392328;1.3609081406082568;1.3015003435295902
132260453;166.93828030194777;127.66615205004246;138.3652515724491;1.3608940730757846;1.3015380214710539
132260500;166.88935753530765;127.57957176421066;138.22089778071322;1.3610083775325437;1.3016755021208843
132260531;166.85431999762602;127.74822102619289;138.12635005179425;1.3610453107683371;1.3017377036985232
132260562;172.97484709060495;122.78288738220951;138.0632779813032;1.3611144250319935;1.3195825901312113
132260593;173.19172650301391;121.92045681994112;138.12533225070621;1.3611750771992155;1.3194210453819559
132260625;173.28545502263418;121.43484972347252;138.15872851852222;1.3612375009387183;1.3192259783146842
132260687;139.524285196742;178.04835649575455;138.06528517426003;1.3612838421696989;1.2836521657544848
132260734;139.51886725595307;178.22993511354292;138.039000389565;1.361309846425655;1.2836742499183751
132260765;157.53469757672087;140.94030477402316;138.04145225501148;1.361319095218267;1.2886324030023211
132260796;166.20460714347698;127.29901631913583;140.39307890267722;1.3606218410756734;1.3006991397456744
132260828;166.22671895497592;127.23738272300483;139.91994423367532;1.3605880770521914;1.3007467112368554
132260859;172.48194416885636;119.63884845684771;140.72194879544912;1.3604020719767285;1.31647799809732
132260890;172.49527942165557;119.78162874625937;140.21646245525426;1.3603548730207005;1.3163057471932236
132260921;174.54322337128855;119.28228700305783;138.93860873246879;1.3596095136723487;1.3138847805768759
132260953;167.30947985345793;128.49489224305319;138.62763784057583;1.3592145787440921;1.297720030859975
132261000;139.67805314498276;178.14557413283913;138.51252090003735;1.3591916475379435;1.2765302811256931
132261031;140.97571318381753;177.06081681613051;137.46503936429588;1.3586272178410699;1.2743479235719957
132261062;137.99069355386035;176.326235950702;137.92506505045941;1.3580535779308554;1.2738695588492035
132261093;137.83019311661465;176.09932038012192;137.07058743740447;1.3568066991796999;1.27005272364916
132261125;137.67907564996676;176.43110390355591;136.17517946336889;1.3551397898168121;1.2651165535329596
132261156;164.62581630417122;135.26849350630712;134.47248026332548;1.353977319519746;1.2681198524795576
132261187;166.76051851977405;134.0495681803539;134.45623335959962;1.3520598208378298;1.284984719883066
132261218;139.25083084324612;176.64955779774479;133.31676561540155;1.3472958040042156;1.2431336703144891
132261265;140.38547018721391;177.02268462683273;131.918190226331;1.3447263466786044;1.2390155451430907
132261296;140.91246376554219;176.36040819611463;130.77920891578228;1.3420664294899616;1.2344268078930922
132261328;141.02293232522894;176.37640632416006;130.16633200336486;1.3405641817425431;1.2314535024646853
132261359;143.108812158947;179.42661260750182;129.38415704463131;1.3361133629326683;1.22507959485624
132261390;143.13840006749069;178.51826346577803;128.93926285590811;1.3345704919342958;1.2230853811328712
132261421;140.95767193736006;178.3705886411083;128.45323090482569;1.3291577570204622;1.2190245303085339
132261453;141.11599819401593;177.73015908785843;127.86121776562897;1.3271009760815877;1.2168821210481802
132261484;143.24545944563937;177.247518822996;126.4816664483031;1.3264668757156968;1.2147543677930606
132261531;142.39436217880771;177.50782232360191;125.83249075802182;1.3210371195121968;1.2086597015070455
132261562;142.89248132784613;177.398750846408;125.06498756253539;1.3196859196284356;1.2054147085864007
132261593;142.61895830020282;177.40960228361843;124.70113753311658;1.3188463101141676;1.203441986059528
132261625;142.90926664319946;177.62434039996444;123.99078003529147;1.3172571815220124;1.2002988330336979
132261656;143.32453284479652;177.45483470707961;123.17170520816467;1.3166614640814112;1.1991992566351866
132261687;138.75516094212972;177.21618200845393;124.05998528742704;1.3360995796429891;1.229921424101238
132261734;141.24112868048951;177.04789957719271;122.11886411527517;1.3328360794872782;1.2230401797121293
132261765;144.87377239928486;177.1643910785067;120.05903099331451;1.3062231994864926;1.187144815528433
132261796;141.14064806999596;176.85014089815493;120.56434986650436;1.3049199420608797;1.1920363890668151
132261828;140.22660951199012;176.83158105958978;120.15022602463239;1.301737735045446;1.1894001330237607
132261859;141.60459804634192;176.43025916502614;117.82833305151287;1.2933649983737547;1.1818689499148103
132261890;141.41691809026628;176.70472025208525;117.47444572603237;1.2925755383506727;1.180082476366213
132261921;141.33567476512067;176.6472465848922;117.07147768792093;1.2919331578380677;1.1790035893484163
132261953;141.36415094362485;176.4805599908656;116.70505622907518;1.2913423970355076;1.178888832988356
132262000;142.25900530301;176.45937876425896;115.65632284023212;1.2891022225620625;1.1761061034870235
132262031;144.05787621211294;176.37115677866296;113.88728055302283;1.2854297330021336;1.1727347218378854
132262062;144.93468822352875;177.6183980147778;113.64936096009251;1.2853172318250121;1.1717015951275951
132262093;143.88792985713104;178.10340738537369;113.50294551965527;1.2850623601103937;1.171097941924242
132262125;143.40435093583082;177.60563688308054;113.31145891448635;1.2847041712630729;1.1704412245771758
132262156;143.7653352506606;177.77689574147493;113.03868059756441;1.2840756987051558;1.1695475642058404
132262187;143.87997253871097;177.95113943086355;112.87079018145803;1.2838529241067536;1.169283566299957
132262218;143.874338736633;177.97558685689751;112.8232014803436;1.2837685505237548;1.1692354998960355
132262265;144.08929185916767;177.98000732986051;112.69887014460623;1.2833973158472447;1.1686864639907606
132262296;144.11387550131803;178.16091027640667;112.72677194336467;1.2833792974759302;1.1686279755722286
132262328;144.07667044748283;177.79013619148111;112.69740008591398;1.2833770022229778;1.168708668906675
132262359;144.00730500631457;177.52526382721828;112.76228564533918;1.2834667188475819;1.168983923009554
132262390;145.44007797168919;179.45170374703523;112.69913619257257;1.2833367075909723;1.169199333653133
132262421;145.69054156962588;179.05464283674303;112.75389711856542;1.2836086138381928;1.1701577630251454
132262453;145.84802233854992;178.73415628779307;112.82092518895799;1.2837489860052327;1.1705431243878657
132262500;145.31761100472937;178.59570473577688;112.91023453393578;1.2839350183822522;1.1710726884517764
132262531;145.93130944754859;178.60088639914574;112.99495238924726;1.2840305072757372;1.1713237255161135
132262562;146.1960531912755;178.02542070915717;113.0332832383436;1.2840183697248666;1.1713733343782258
132262593;145.17495257295394;177.319743031419;113.41825621118096;1.284845706199901;1.1735695713461696
132262625;145.10434664376038;176.36635831281669;113.56774189078283;1.2851433602051416;1.1741263584144317
132262656;146.0082496654457;177.078046575459;114.01763161468269;1.285976281091892;1.1747917978579083
132262687;146.12053699621558;176.59411054380857;114.38696690464231;1.2867626402008736;1.1764396811373667
132262765;146.19002601627685;174.37031731448013;114.85808320852246;1.2877178041748507;1.1781118678160027
132262796;146.59260602662968;174.36897323783657;115.44976503665646;1.2887317202305106;1.1789264840329585
132262828;146.86525614884553;174.21501308817688;115.81057521364069;1.2894863396781446;1.1804147474868465
132262890;147.07370214333869;174.08923263437478;116.74810939172548;1.2915595076424609;1.1854168598729513
132262921;147.01466895784157;174.11857165063381;117.07692661245406;1.2926192424733742;1.1878587217782533
132262953;145.182920498408;173.71519868578773;118.25694150451324;1.2958219579329418;1.1943026304274047
132262984;145.42449377658878;173.99709251237323;118.59917035922358;1.2966016234393176;1.1960442933826689
132263031;145.30970845002284;173.77172153822329;119.20503012405204;1.2982129083678451;1.1985638932478782
132263062;145.22141090151317;174.05476599347887;119.79297036495019;1.2998672114110017;1.2014649676505338
132263093;142.36833460449708;173.32936801150029;121.63537162490124;1.3048464754205043;1.2099906406762033
132263125;141.44104577789335;173.26022886866275;122.21763807783027;1.3065771186664457;1.2140923026754253
132263156;145.85955803513971;174.56530387843213;124.39896744195656;1.3288463970137194;1.2229577832140584
132263187;145.99424229712261;174.82167782707489;124.63735273009172;1.3292208561057208;1.2242033660669835
132263218;146.2125568144447;174.91273928703757;124.65486352526159;1.3297629877131185;1.2256745791045929
132263265;146.31298477050132;174.75449109575504;124.55611087921635;1.3301936802914027;1.2267527480749316
132263296;146.44792615187293;174.86835479247807;124.7652815605593;1.3306251966124847;1.2280053144145342
132263328;145.50909141818295;174.9495673615323;124.97124906719907;1.3310391032963329;1.230181878139017
132263359;145.49542049438239;174.00087531153415;125.10738793086851;1.3316987895006844;1.2310575851958376
132263390;145.50287414218761;173.86307461277411;125.03412803579846;1.332104132472089;1.2316810470285815
132263421;145.53576301566906;173.33423295576276;125.21598015039935;1.3325796769212301;1.2325328475190129
132263453;147.41689128670177;176.9180326092968;125.36262373831247;1.3330600705430808;1.2357954101073814
132263484;145.98641543012349;174.52787606247941;125.56288599328637;1.3334918601522232;1.2364651635926507
132263531;145.98680433679294;174.18417821102884;125.7601868271114;1.3339380839189654;1.2371565734328016
132263562;146.00507850090432;174.00715898845596;125.91779829674812;1.3342738701517809;1.2377054862137065
132263593;148.0022912269088;176.92002570357892;125.99208316413039;1.3344229618394163;1.2390213822836929
132263625;148.09290651766912;175.88664834851886;126.20544105325654;1.3348662234531605;1.2400412459628747
132263656;148.17534664092733;176.01725983637587;126.21734721346716;1.3351389971992984;1.2408005534936202
132263687;146.7934623668703;174.93047879395249;126.39517779624028;1.3356667049539459;1.2427864227360406
132263718;148.90747537780953;177.1565459743434;126.53165001787821;1.3359558774525193;1.2442591420799583
132263765;148.8636859820399;176.79602537543983;126.61488428016047;1.3363595243395792;1.2450299340569864
132263796;148.85875227666321;176.69771934833136;126.75530730817023;1.3366878719541924;1.2456368321082405
132263828;148.75539973606897;175.95766706572618;126.99314336234031;1.3373655890005527;1.246828766450254
132263859;148.64386260938983;175.9567028118623;127.21530333922512;1.3377583414942584;1.247725207758601
132263890;148.59142119104345;175.54262486856325;127.43184260971533;1.3384507708510411;1.248615441238462
132263921;148.56630374592197;175.66065245502975;127.58759714923875;1.3388798498114669;1.2495356460295364
132263953;148.54354417183851;175.60638571623079;127.79356651353552;1.3393114651934002;1.2505124034050608
132264000;146.58095495911803;175.53864022404449;128.0369175045619;1.3399803533544863;1.2529516638327236
132264031;146.53391260417757;174.93724558010982;128.17350723603605;1.3403776766383044;1.2534718468897232
132264062;148.47103071273665;176.98929230719719;128.18084672077666;1.3405530764766764;1.2542773959627818
132264093;148.36776716336522;176.10635531505918;128.37215776481961;1.3410841051591107;1.25495217594915
132264125;147.96242446541498;176.09193175225957;128.5166312077844;1.3414196382699437;1.2561614148409535
132264156;147.97617300674537;176.19944324366898;128.60254350298285;1.3417017401158611;1.2565198598057707
132264187;147.97500100685579;176.26323083115722;128.66457806402741;1.3418700250305422;1.2568051497685824
132264218;147.90283531382468;176.21722979821797;128.73518465193081;1.3420231277570971;1.2571381556131676
132264265;145.85753741381112;175.54068995212296;128.83232870530981;1.3421763028172697;1.2581895873660605
132264296;145.84594366439958;175.63390573579395;128.8840199689914;1.3422953026446391;1.2583830951591124
132264328;145.83924629377563;175.56833258463863;128.92753209034649;1.3424609757468129;1.2585517098509
132264359;145.8668185205693;175.46673376295271;129.93217285342558;1.3425969867826342;1.2586634407467841
132264390;145.77218295457669;175.78820800058347;129.70646818700487;1.3426863945159555;1.2588674602861099
132264421;147.82243398198978;176.95706178612204;129.73622311148623;1.3427404900065674;1.259229941810434
132264453;147.71611053825245;176.81743518955486;129.90717903079818;1.3428352040368237;1.2594374286984806
132264500;147.823571949389;177.21115979031802;129.92945281969173;1.3428132653236777;1.2592391291740721
132264531;147.79131548475218;177.57502828710884;129.92557527196257;1.3427895268436536;1.259205451725429
132264562;172.59085835560151;140.1777511311227;129.89767346368163;1.3427058555207152;1.3063884623219084
132264593;172.52434523354518;140.19821801074181;129.92146560986745;1.3425996492588725;1.3063235128443123
132264625;172.56648570822924;140.14473409949116;129.85575849704395;1.3423750009090869;1.305955621825845
132264656;172.38505258541068;140.44850929081824;129.89099514958357;1.3422344230086412;1.3055549378371079
132264687;172.55841260747917;140.34472690434998;129.76233321576996;1.3418594675404751;1.3050648795341797
132264734;145.41821472393977;175.89171627036487;129.70256678512473;1.3416588852911169;1.2547328359067109
132264765;147.42117226571054;177.67576047236585;129.65954168638478;1.3414462590363487;1.2543243311754919
132264796;147.51613811557559;178.52976186443743;129.51683757970244;1.3410481798671523;1.2536934801034827
132264828;147.55292116023284;178.27144100364242;129.4213895172434;1.3408244309526169;1.2532443176574457
132264859;147.51790051717083;178.15958708385824;129.37506044864207;1.3407934704147364;1.2531003452555769
132264890;162.16471218488823;149.24434843584837;129.32047676754877;1.3406513022831732;1.2584379546318409
132264921;168.82920042728517;138.71883260655756;129.27657549567596;1.3405841143170338;1.2725740952825797
132264953;169.12254203839535;137.81191417508822;129.2867459436134;1.3405986151430656;1.2740330512014109
132265000;169.54502286327374;138.10521597041327;129.30779802353285;1.3405513139517973;1.2778553047075121
132265031;144.79884418627026;177.24172900756329;129.54965371698924;1.3408866593315407;1.2511049507524124
132265062;144.78589317841687;177.61883092358417;129.70414197112038;1.3410028926931279;1.2504102076244774
132265093;144.05982013194117;178.06550796537553;130.15491005261654;1.3413942441074469;1.2504784043886461
132265125;159.69492285241446;149.58836079337192;130.16771299535947;1.341781081583574;1.2575104843755365
132265156;142.02252387934422;176.07605161087062;130.12478182209591;1.3419154477793469;1.248178910141958
132265187;143.95369675185089;177.76831727514619;130.24759588499776;1.3420804542755795;1.2479965433582547
132265218;140.835278447817;176.00094891607822;130.13140914365545;1.3423260509375594;1.2469649459925372
132265250;140.8867954231585;177.6265509469176;130.12004599172411;1.3423222686264158;1.2460977204395261
132265296;142.45268368480819;175.32177103486927;129.96013782871341;1.342336227506685;1.2444843644037609
132265328;137.01163023750445;176.52977960440092;129.27263418685587;1.344141375076602;1.2508951079988937
132265359;138.5257770614835;177.10370823064602;128.84515042753532;1.3443894564073953;1.2471923936128324
132265390;143.87844366989785;175.68932378314247;128.25763955509936;1.3433552946401519;1.2307322681145116
132265421;110.95781329712955;175.34420100933556;146.11552342046022;1.3851827712500449;1.3090677271366593
132265453;110.77249625148282;175.33823600928042;146.32611537639974;1.3851870002843232;1.3072788585555137
132265531;102.30462996239631;166.73778382675698;144.79702754673909;1.3784245945576243;1.3289030493876701
132265562;100.26672753397131;163.69106128231366;144.65019936303852;1.3791902329646666;1.3354146564432625
132265593;92.695989983292222;177.2864583820114;144.70432369048737;1.3797682247403107;1.3447880069338463
132265625;94.33419930429379;170.47088499232441;144.71692088932491;1.3800882556745311;1.3444384629927055
132265656;93.923735096575783;168.44335866277552;144.76891726253021;1.3813387388979048;1.3463589465704524
132265687;94.064811590947059;166.44918719171957;145.12174343069879;1.3815782485876853;1.3465093855554828
132265718;98.766648864458276;178.11662861669484;152.3210004559779;1.3956335744788788;1.3172642552641221
132265765;88.354406070230212;170.17699485478624;146.1086249309225;1.3904453107801937;1.3700266503027891
132265796;97.971534724329715;177.87798982685894;154.27804046709477;1.4005266859483825;1.3239979272832665
132265828;97.546109708905;175.59081112153413;154.66585667131179;1.401423225831741;1.3255050866443623
132265859;84.50112220654205;173.02902008623434;145.27223927241889;1.3931184261692087;1.3874624998177172
132265890;87.813228408204822;170.44751324971944;147.41169978311447;1.3917227939767736;1.3728599881028625
132265921;83.929471993537277;174.09083013209605;146.77679268633958;1.3959166076170193;1.3889508468337157
132265953;105.31102533768505;161.93045438865741;140.07419909419309;1.3550842109502566;1.3137781575941696
132266000;105.46169591368104;163.66521894471617;140.07286506720331;1.3551730788126457;1.3137635915066315
132266031;105.94611098275162;162.77909032766468;140.14505832032526;1.35538563213463;1.3138230819778265
132266062;106.43040362464107;162.76164578815349;140.22251527696295;1.3558268941580987;1.3138428967948914
132266093;106.92679363317525;162.17306012742469;140.72332425770108;1.3572221109346918;1.3137909360633711
132266125;108.1714278319342;159.13405616030454;141.18805093878288;1.3586418200147958;1.3135548765167056
132266187;30.071515620015518;102.62560754897055;152.45935227980959;1.4089562927437271;1.4732461428070458
132266234;30.181119641223813;102.28858078316216;152.67617693957746;1.4094553647630763;1.4731263230327611
132266265;106.38616097161511;157.53898207129873;146.83091342323664;1.3757374706070014;1.3343074784550322
132266296;88.027130937509526;173.6341324259086;154.70955261235619;1.41375506341222;1.3955890631776855
132266328;88.169734944081114;173.58985496114053;154.72085371929754;1.4135084755744605;1.3950858648657087
132266359;87.534566475522738;173.63591047495766;154.13157553073856;1.4144403827425154;1.3998239091046514
132266390;87.99776362519323;173.11962194471002;154.44723576802133;1.414838863068091;1.3982564152423669
132266421;106.5049816159458;160.8615884062703;149.24827161763616;1.3845437785550723;1.3441176918623243
132266453;106.72858235954742;160.58608988678654;149.52394922797527;1.3850077563305216;1.3444491666227911
132266500;106.83067809808091;159.87876153753641;151.53003191200943;1.3858160867229517;1.3452145589068869
132266531;106.95863280698299;159.31046806225976;151.85467076001291;1.3864704597970494;1.3457537627645586
132266562;106.79649152521637;159.5045728891597;152.75666651105692;1.387657240922453;1.3470713642828911
132266593;106.81920681080999;159.38647690029873;153.20089936608449;1.3889208669938287;1.3487071097725798
132266625;106.69369435120129;159.7709344675622;153.65424399523607;1.389981554115612;1.3503728593240953
132266656;106.98329261854414;160.4504110833565;153.94553607362846;1.3908783569961247;1.352056712571504
132266687;107.17039426393518;160.495656377567;154.1227990603625;1.3915360765509266;1.3531458990020548
132266734;45.25031392798801;115.93233089813003;159.68160118426044;1.4240023423172479;1.4663690788157029
132266765;107.24600638821796;160.05387673773322;155.8149797272732;1.3974155819136476;1.3620116569536365
132266796;92.072037170024359;172.8831582901116;159.62325201941059;1.4240385458226224;1.4084399318553771
132266828;108.03780664024698;160.6007190654141;155.81024265220648;1.3972653795391132;1.360448562299869
132266859;108.13345777012123;160.8356116375227;155.76595794886362;1.3972878423180946;1.360379120072247
132266890;36.595948484321632;105.32147544860209;158.84060388337318;1.4293553194729614;1.472563453755747
132266921;36.553527174705636;104.53407390245931;158.99036731416925;1.4291806185202629;1.4720300373494915
132266953;36.515949668129743;101.3465366477181;159.09015075167486;1.4284333687163018;1.4708933021693262
132267000;36.482148059844079;102.77941265132166;159.28491174801269;1.4280334158153327;1.4698043612058689
132267031;36.406739637149457;103.66228463214841;158.24922071315919;1.4283790083801544;1.4733043408359403
132267062;36.3789205239189;102.39959549434056;158.46724585806905;1.427146234396494;1.4713488181055607
132267093;36.53531678996665;105.28414911647134;157.7013064834824;1.4320812655015203;1.4780077220937495
132267125;36.512370327537077;102.63302326420993;158.4985204381461;1.4285416670242821;1.4724949861689092
132267156;39.626267229355854;107.00851021072559;158.4960257209417;1.4282601822031256;1.4719496509363619
132267187;39.405535747701919;105.99614867989452;157.71759390539606;1.4255104218871333;1.4721887208223008
132267218;39.210058240178519;104.89552895474668;158.230447786621;1.4257162931622995;1.4706703337065064
132267250;35.930377626130657;103.20137568975534;157.05663444327033;1.4267596342357121;1.4731797927491364
132267296;35.591994594135215;100.76347183536751;157.83742314272635;1.4252973719213411;1.4687511380686502
132267328;35.113742321266564;98.47610737102741;158.51359735382991;1.4237078151565712;1.4639863492634142
132267390;97.325408439023377;168.54789070225479;159.27935505026017;1.4207261976247949;1.3939595675561065
132267453;96.7188332084918;169.38511037954467;159.44439240754946;1.4205176013761176;1.3952020644951753
132267484;97.228779367850848;169.19807151094005;159.45676057624758;1.4198835881566518;1.391252380308118
132267531;94.458232776486611;175.12329074083672;159.62209441168676;1.4194630557691264;1.3891361541490339
132267562;96.803993245727284;172.70533768726082;154.49863036019127;1.4211554533089512;1.3943874808367549
132267593;90.489475015146851;176.31662413606321;156.63817065439014;1.4175963788145225;1.4004786075905689
132267625;98.182554725319861;173.59159654571874;157.91209211683685;1.4154578177246939;1.3778041197207536
132267656;100.42723968257539;173.85453602382563;159.13265402601627;1.4147823251158793;1.3650023204910577
132267687;93.127999021495242;173.84032823490466;156.47071315834793;1.4082379392758311;1.3765625744161938
132267718;91.321997524351;173.72020308370577;155.72088525784236;1.4090690898841789;1.3808895597125082
132267765;90.82926995630001;174.41420662558107;155.3461474330029;1.4077014367696239;1.3768903383853084
132267796;90.870622605628142;174.23233031739943;154.55885728028673;1.404767308723919;1.3722429783689392
132267828;90.523210223208281;174.99964320283613;154.09013314261102;1.403308125730232;1.3696255821433672
132267859;90.195692052166308;175.13614241019263;153.4045513328945;1.4014329765183062;1.3675499039032526
132267890;90.052625550982142;174.76382359401495;152.90437072537313;1.3996432097309359;1.3656927390900167
132267921;89.519834863948148;175.53396246288116;152.4345492108975;1.3979918409852616;1.3638484206604582
132267953;88.832756956558669;175.52724727186373;151.91964077545302;1.397132288076183;1.3647875190245347
132268000;88.225521839056583;176.11117808641106;151.45775701317498;1.3967145251716433;1.3657775712378431
132268031;84.047880750085241;175.37780920978295;150.03855955994132;1.396206647679185;1.370363712538696
132268062;85.010826086168166;176.96142505828411;150.00499853510971;1.3956390969533121;1.36834700031556
132268093;84.624402735928555;177.60991499683382;149.62376212484645;1.3957331502773833;1.3703998886636875
132268125;85.001444538176983;177.52314795654061;149.65623174165816;1.3950081475987597;1.3685293746697276
132268156;85.230614780568871;177.33491283576365;149.63144779918861;1.3944396482550137;1.3675184769348177
132268187;85.325623705914239;176.04271109407074;149.60556446482065;1.3940108373282518;1.3669788514967398
132268218;85.049320169796758;176.11677159909706;149.53945521838185;1.3936357048418622;1.3667218502559804
132268265;84.859553326691611;176.76814163614498;149.15078858174033;1.3941597038465423;1.3665926797134214
132268296;84.431724845628224;177.10868992957009;148.93800781408743;1.3944652717905701;1.3663085204971275
132268328;84.1981062342195;177.61489123960243;148.78686554268984;1.3945058060331868;1.3658645922965689
132268359;83.743460766790719;178.61034666045663;148.56697323984545;1.3947715444232385;1.3667093738224594
132268390;99.985718574967763;167.41706757480387;141.74871287393125;1.3577214918341072;1.3080276819314114
132268421;99.947950366146813;166.88527655180678;141.80745758578979;1.3579971455002775;1.3083562053236366
132268453;100.08175833820839;164.33323672375602;141.95420227746249;1.3583844587007306;1.3084236905347515
132268500;99.901357475923646;162.3650200670447;142.31593893905713;1.3593450441777195;1.3095991788010704
132268531;100.48319773079874;160.88289032940784;142.70306209704526;1.360116395623806;1.3109754205821733
132268562;100.08499921088189;159.61865510359397;143.76303836737205;1.3627691745350803;1.3130525103456499
132268593;100.2801000883331;158.28987173297219;144.38167383267785;1.3643153131073711;1.3161422146904622
132268625;100.4129120823786;157.65753807659232;145.20200143751865;1.3663309240043544;1.3177880128918946
132268656;100.50549213778599;156.4245233046255;145.83163824785385;1.3677006287985054;1.3189222899279736
132268687;100.82120259831412;157.02399096297899;146.28427045927816;1.3687641894476799;1.3197018469089856
132268718;100.7603653722896;156.17340096200985;147.18893146253322;1.3711497245536621;1.3227376872787671
132268765;97.5393946554587;159.2072451754494;150.51013205202617;1.3817712121803984;1.3337689333855924
132268796;97.405842582542959;157.87774024197165;150.81938961801271;1.3828238554344214;1.3372782423533216
132268828;97.474698439644527;157.004493450337;151.01165907451573;1.3834830298742065;1.3402310167349893
132268859;97.580915704987618;155.6341780199935;155.20674789388085;1.3838938425883995;1.3425419543844022
132268890;97.258121283948284;155.57495521609343;154.54605240250402;1.3849575966947083;1.3458201282051172
132268921;99.975930411505246;151.35511080440372;153.50923476323223;1.38143088186208;1.3363715275875279
132268953;98.047857310206652;153.10668363568544;154.14444990299259;1.385495881950646;1.3445373952721988
132268984;98.569078492932235;151.86870976062326;153.46673060661053;1.383692809706955;1.3424575786960797
132269031;96.929324774362925;153.3492004460627;153.9330669867916;1.3865411564606465;1.3483960926448626
132269062;97.795399901568317;151.49078222507089;153.33188416606146;1.3849376875591977;1.3463057792514155
132269093;97.996827849007488;151.69381996439148;155.06393258273877;1.3843891221405498;1.346190390645734
132269125;97.897611134774863;151.97110571053196;154.5484617245022;1.3840575693458352;1.3462438640011298
132269156;97.866554508054534;152.48716580410141;153.77079839545226;1.3837066148858177;1.3460176862360991
132269187;97.8440159997031;152.44376726126043;153.31387740918643;1.383453737357603;1.3460387305442969
132269218;97.931352298790742;152.05116193362542;152.72051581322523;1.3832782696211134;1.345894051836402
132269265;97.968949159920911;151.55355408625371;153.36348392299558;1.383137520633146;1.3457716614273829
132269296;97.776916444696;151.95596988067942;154.38657189078856;1.3830821007513079;1.3458928121991816
132269328;97.382532677047067;153.22307182617166;153.47723199698825;1.3831066669213674;1.3466460908451408
132269359;97.21194428826756;152.83144594017784;152.91699420231149;1.3829903709220546;1.3466147793507304
132269390;95.403254652461811;154.76854834570978;153.07999360557955;1.3855944041709496;1.3535352672633267
132269421;95.474080257327984;155.07503373784473;152.58219509137982;1.3846760834016194;1.3523015242247403
132269453;95.8738501852239;154.86104300096966;154.02744747082784;1.3832753132090325;1.3500201511074879
132269500;96.4278353716508;153.74886579417307;152.57660475795356;1.3821076911813257;1.34812463760634
132269531;96.657721560529225;153.69561127565603;152.01869951731854;1.3816521524082395;1.3472626247442314
132269562;96.784313144418618;153.15121430317942;151.41884129468491;1.3814620003310918;1.3467933053981613
132269593;96.783157145932265;153.2029871758109;152.40428691441591;1.381492541920015;1.3467171432026286
132269625;96.577890772345611;153.96803532523731;151.57077411221343;1.3812742143735717;1.346247698747292
132269656;96.5019598993718;154.72758743369482;152.67662375043463;1.3810010780308959;1.3456796389263062
132269687;96.440685537527628;155.4031209636214;153.11844738205471;1.3806799545873465;1.3451120899651419
132269734;96.421654415468055;155.5162973748175;153.52350423822773;1.3806710378299538;1.3448179644903993
132269765;96.1859493689121;155.82480396806361;151.25388577210293;1.3808614119505502;1.3450193219222355
132269828;95.843829420680464;156.53908630631935;150.29371050241269;1.3811898009998769;1.3457380813820694
132269859;95.42856067694;157.25955342543571;150.19966173439852;1.3818639116126079;1.3471011205289107
132269890;95.000915172110481;158.02813670438408;150.2645441960405;1.3827246917357028;1.3485873839687239
132269921;95.286821485875819;157.26550301330772;151.78954670877954;1.3826950506454563;1.347839203104934
132269953;95.3700292268402;156.84114278180022;152.68408467217824;1.3826792237788184;1.3476924194408593
132270000;95.686555732102718;155.70631107096463;153.16800103616271;1.3823774930592174;1.3468837831807388
132270031;95.731995211721667;155.83024076018722;153.50824014342862;1.3821652365197119;1.3466844326517609
132270062;95.869386210569388;155.46279061490546;153.48975592112561;1.3819255519179416;1.3461157085760604
132270093;95.844111899266508;155.4992377741161;153.70063462609008;1.3820225552512342;1.346227787049419
132270125;95.737560799761411;155.54964585184749;153.82909925201739;1.38216182308932;1.346670223061986
132270156;95.82633799076531;155.24761401261242;153.86742942668641;1.3820895311888466;1.3463419825579484
132270187;96.132737721815317;154.6064380331629;154.11384375965574;1.3816474798067859;1.3455289442798151
132270234;96.266016829274548;154.52349652948792;151.4354114198778;1.38158738000842;1.345267629268736
132270265;96.045506668984586;155.14216422056276;152.04283763740563;1.3817152211631583;1.345614107363208
132270296;95.9788231712015;155.26266955957053;152.56759283825431;1.3818087450424683;1.3458835914998728
132270359;96.303802628422744;154.9610822758624;152.588244019047;1.3811241901964795;1.3449352749027641
132270390;96.512251343447375;154.30841730472073;153.00058014986811;1.3807751698327553;1.344252889848903
132270421;96.5415126626863;154.25303139852457;153.13782831268836;1.3807297119658999;1.3441933988882628
132270453;96.442487118800756;154.84878205178134;150.4834838657242;1.3806235793838577;1.3440402367321318
132270500;96.371117827721619;155.67110158552205;149.45424550399082;1.3803768120135735;1.3436785149649022
132270531;96.317698383477378;156.22738834599849;150.80301778202215;1.3803220115372579;1.3435727535017323
132270562;96.2953626883392;156.34102036300791;151.4466585350757;1.3800382448208581;1.3434998388271822
132270593;96.236624132786076;156.85342152998013;151.82180376107075;1.3799079559850846;1.3434677523790171
132270625;96.1314127432108;157.4354043373246;152.74094334376028;1.3797730597729445;1.3433687216751273
132270656;96.134409424248886;157.52597522062754;152.04413938339809;1.3795890467045695;1.3431191435876779
132270687;96.096415225151418;157.38827909052861;151.56431944000863;1.3795935461215765;1.343065874678971
132270718;96.190239203676711;157.4087902308064;151.8880856378008;1.3795147332824251;1.3427666391732944
132270750;96.095155420940728;157.542252703485;151.82713764875041;1.3795494179656007;1.3428405712345231
132270796;96.043907007202918;157.95759107033777;153.11444940929852;1.3794100873220743;1.3426604420371708
132270828;96.429758134284072;156.61141217053634;153.84943901843056;1.3789747245388229;1.3420301104875285
132270859;96.28458748342392;157.51922942637646;154.16132214158779;1.3789592218623075;1.3418967116798986
132270890;96.47705513413932;156.63908054379158;154.48380158669627;1.3789965308632473;1.3417078788424401
132270921;96.207164808087043;157.56723623875166;145.10981642925134;1.3793222421372187;1.3420593383530914
132270953;96.063937777654829;158.05681375184793;153.2085607730389;1.3793535745156065;1.3422538877208436
132271000;95.976966696037181;158.42375840189251;154.20322146692044;1.37933907567161;1.3423824310253167
132271031;95.734299838916257;158.79115778466641;154.81608491754449;1.3795977438702327;1.3432707204129206
132271062;95.669058210749412;159.02159519480676;155.08025001155343;1.379624296216714;1.3433176331818229
132271093;95.780713060353321;158.30297568893292;156.81819150335173;1.3798336036252568;1.3432574096864802
132271125;95.783291174715586;157.66104685821082;157.88487560945583;1.3800383315958158;1.3435859018074345
132271156;96.105361358471555;156.80226332527982;157.87258567607017;1.3798008131113249;1.3428781189202508
132271187;95.456531827173151;157.31299083216123;159.17450910957882;1.3808567124099389;1.3451710055120907
132271218;95.270561346818923;157.78523422246019;149.12158855124469;1.3812053331940177;1.3458011429527912
132271265;95.353946453778377;157.238187721258;146.76798941563641;1.3810521997758458;1.3455814866054294
132271296;92.49102354952791;159.76767482915687;158.40391969320544;1.3862809054697851;1.356082813867481
132271328;95.589619551894145;157.14457248526526;147.889812715568;1.3800923671243974;1.3443887014466336
132271359;95.371029013332787;158.0287417160045;154.24764226018826;1.3800070546039824;1.3446753839293475
132271390;95.431811698383413;158.30826318954993;157.13789125363076;1.3794186949745815;1.3435988929424025
132271421;95.669830426989591;158.51646055728872;148.79003818723936;1.3783522972129676;1.3422351521010907
132271453;95.479254395365018;159.18108204283828;148.41674468887953;1.3789257340385379;1.3429506076429205
132271500;95.442078725909724;159.70589380307928;147.93386266035154;1.378743745766281;1.3427298179079792
132271531;95.516499365533122;160.32604063992355;155.45237762369871;1.378483625728137;1.342401425201371
132271562;96.060386202795428;158.415296789866;157.23098572433204;1.3784144104663192;1.3418595033853231
132271593;96.354697356740971;157.48517543693868;157.92496088067816;1.3784037499026178;1.34159040227945
132271625;96.467860810488375;157.31721212400893;157.60304530838334;1.3780058105221842;1.3409349739256291
132271656;96.6736481860972;156.8796898081302;158.08621972028126;1.3778665925530329;1.3406180522083611
132271687;96.824404026729908;156.24400844815582;158.001055239147;1.3778012173002345;1.3404729627583598
132271718;97.133194780444626;155.166449358316;147.20734570599464;1.3777153494293648;1.3400554380073715
132271765;97.108931612148609;155.15140324282973;156.69543237153604;1.3776714647939041;1.3399763517299403
132271796;96.749771258411812;156.42162219051798;145.67294469468172;1.37759275968602;1.3401356775225206
132271828;96.9876289561062;155.46850999596566;162.20095895311371;1.3772854471884601;1.3396714141519273
132271859;97.0616225212145;155.20181440059309;148.61314174652674;1.3772826687397084;1.3396193208066758
132271890;96.741905916106617;156.63850540649008;147.15063029228764;1.3770263886117833;1.3395527765647455
132271921;96.820067530174427;156.97139318524791;153.06818557480477;1.376585986352308;1.339047571803089
132271953;96.656766299466682;157.21378222293569;154.54979158951116;1.3765407360513442;1.339114299446081
132271984;96.618349498827186;157.72467509097123;155.13775199862022;1.3764080831678469;1.3389576305517468
132272031;96.699370764754775;156.80992663083416;155.92070446568559;1.3765473897219469;1.3390931780238682
132272062;96.961578370442979;155.55750956073561;149.55256046641392;1.3766184263340024;1.3392001458975649
132272093;97.0353915515043;155.2212136673563;155.88222631055535;1.3767730678026955;1.3394142665637419
132272125;96.993683024408369;154.64814437282615;148.66423705737279;1.3770798400929292;1.339967789683463
132272156;97.149237194286869;154.46480722336779;158.51849347050913;1.3769798287815458;1.3397168376644908
132272187;97.252310172953443;154.33902304897021;146.6749451132961;1.376909888559958;1.3394947155978227
132272218;97.16047941533833;153.59752109220693;146.39648257570289;1.3772245822076528;1.3399934192566181
132272265;97.209293760783552;153.94319330846048;148.26320495242322;1.3772205094374839;1.3399106196714863
132272296;97.056108966574158;154.00155892815647;147.8163598821985;1.3776628154097688;1.3406767203945704
132272328;97.185202030396908;153.58117404268793;146.98792106654844;1.377580873502418;1.3403846020843193
132272359;97.148777440917911;153.70605106801173;146.32985346546175;1.3776226150721351;1.3405405246566757
132272390;97.121489822343634;153.40867915786305;156.09374462389337;1.3776836742727192;1.340642767991705
132272421;97.085969783717687;153.7579816982219;146.49077797999559;1.3777489641896923;1.3407737662994181
132272453;97.078795888783091;153.27902290177417;157.42472747644661;1.3777785962363309;1.3407828309859653
132272484;97.144049624511879;153.20072531130535;145.54685901520554;1.3777351038238135;1.3406466390028493
132272531;97.190918705674875;154.07279960594653;156.53750566793275;1.3776741717174184;1.3404949812017861
132272562;97.274838932472349;153.9095102877813;156.8004532986489;1.3775541592484391;1.340301688957513
132272593;97.400546402780463;153.89839162685689;154.58361959316034;1.3774662159783775;1.3400635910896093
132272625;97.702673266795344;154.27143892062802;155.90240797840426;1.3769869785415778;1.3393438115473313
132272656;97.757697043543416;154.40047919033643;157.4436190221015;1.3769571986982445;1.3392735865408676
132272687;97.786059652105791;154.68554722459857;146.02378318848156;1.3769426667390288;1.3392224243364326
132272718;97.76445488667602;154.62764248900024;145.41261314661742;1.3769139177519092;1.3392426587836941
132272765;97.900108612056243;155.01460964470363;154.70450667036153;1.3767559687324502;1.33895079010993
132272796;97.902169580737322;154.79819132542403;150.46004367654595;1.3768234612333512;1.3390254389726846
132272828;97.324804204680973;156.64432278501747;148.11242034615162;1.3768744701729934;1.3394401449690909
132272859;97.463560847455383;156.83605086007862;147.24387609769744;1.3770401085142978;1.3395567830028818
132272890;97.404997202741953;157.09631290412943;145.94213542568573;1.3768322287912116;1.3394173143252803
132272921;97.760929601248236;156.23173809950563;153.545357405123;1.3766752606291401;1.3390586112686411
132272953;97.768023508040542;157.05337488941311;155.67214709083629;1.3763227828162152;1.3384697445305152
132273000;98.191550590640858;156.89737508073176;154.44855464286044;1.376192042539226;1.3378943929902216
132273031;98.396586754105968;156.28322638704705;147.73010569811751;1.3761831489515795;1.3376049155195893
132273062;93.42934517084926;162.50921288070254;150.78628730481572;1.3858249190300529;1.3554262912872173
132273093;98.346891106755152;157.95494808045439;153.19612759780796;1.3756053544620051;1.3368805812641544
132273125;98.300330206825876;158.41043562607817;147.41979218265007;1.3756065626416718;1.3366448087304763
132273156;98.306968554077514;159.14108541666275;149.56713537405767;1.3751605028782399;1.3358964481452855
132273187;98.894105406838278;156.90661203429954;155.52912762853066;1.3750391942833895;1.3352131218422749
132273218;98.6941815627864;157.94332071734522;154.85524291544238;1.3750637677611717;1.3353437467473086
132273265;98.677805451909663;158.82463850075033;155.28569689052176;1.3748958187720035;1.3351050480951519
132273296;98.618384234950824;160.00868676523209;155.98941654478793;1.3748893276465435;1.3349761695784672
132273328;98.553514602757971;160.47312178839616;157.87077651510049;1.374814103854664;1.3347587621705728
132273359;98.660363847959928;160.47909509650393;157.23333307801963;1.3746456591318081;1.3345357037588175
132273390;98.618312925012;161.33007867286509;150.61207228967112;1.3746380578216269;1.3345862126389554
132273421;98.489832322543919;161.60456041498892;151.16645574455617;1.3746140856189943;1.3346169143145239
132273500;98.5174708316451;163.50472954322146;147.21238276487017;1.3746597947625239;1.3344346163451986
132273531;98.575550665491591;164.38199181108394;148.56750223394994;1.374564940043788;1.3341103373868342
132273562;98.651384150377169;164.27657569272341;152.70998515087865;1.3744506545593629;1.3337694448550574
132273593;98.776642586064966;164.60721087751833;153.87071425305797;1.3744384494770787;1.3334445086969473
132273625;98.834147604595444;164.22912475902851;147.99511424348881;1.3744645133915978;1.3332669900028462
132273656;100.54697701494277;158.44847602934721;148.61029374199896;1.37446695605699;1.3322077057324848
132273687;100.34901705043448;160.28771453644956;147.53652899328097;1.3744165032146312;1.3320733201298169
132273734;101.35391738973267;157.17254853298232;152.74583083397658;1.3743951788106741;1.3312515963370093
132273765;101.08721900024824;158.45751855268725;153.42007908065384;1.3744839088245495;1.3313349660597116
132273796;100.95069612192566;159.7342873255968;153.98282477792887;1.3745021637727746;1.3314102548851914
132273828;100.88922920970084;159.8997150618936;154.13180176411856;1.3744927223949506;1.3312811372489672
132273890;100.91637076677816;161.09676208398625;153.89991735507118;1.3744844799959357;1.3309801290620353
132273921;101.00784156699986;162.81714178996353;154.8577989911804;1.3744358082837755;1.3306303441768903
132273953;101.08588223864145;163.7610134809899;155.49377282463885;1.3743702544356433;1.3301474706454939
132274000;101.19173819058752;165.99656339784167;154.25463058845571;1.3743794463545656;1.3298832517339811
132274031;101.4087152382492;166.03321534949058;153.46446232162268;1.3741522338052268;1.3292937022789166
132274062;101.61503769341505;167.83329227392449;153.32856631004179;1.3740024993299422;1.3287533034976986
132274125;38.069633718345941;109.51773457480546;157.76496651789338;1.4129259707762965;1.4629639146702964
132274156;38.04971653471128;106.66102749162813;157.18548459075797;1.4130183666357015;1.4634823777612258
132274187;34.820589085487029;99.610539043358912;163.21025426722551;1.4132183040315383;1.4621546558732097
132274234;107.18279383965169;160.81333729825704;150.93265920962514;1.3704089943280826;1.3162200240263406
132274265;107.14426146509399;161.71820145681298;146.85612399909479;1.3704472397666319;1.3162775942137872
132274296;107.12390952044689;163.12650424720945;148.37715099071679;1.370488456675133;1.3163597761785817
132274328;83.238656493558167;172.68747061221575;150.93524270002104;1.4186026625526595;1.4069363611750063
132274359;83.309258113840386;173.17646861873533;152.21768883039351;1.4185985899206874;1.4068306574330913
132274390;83.367460725974539;172.97332463785511;153.08972347632349;1.41862958343826;1.4068013410244415
132274421;85.69654471642508;168.86310666550764;148.47427170387408;1.4185656416260293;1.406162268114147
132274453;85.715300770060921;169.01647106666584;148.68734587531202;1.4185213612749712;1.4060472759413245
132274500;85.81799869324432;168.951349902321;151.37705433159439;1.4183456514202462;1.405577338201591
132274531;85.812784212766374;168.95619003679786;153.21127323144691;1.4184114175208578;1.4055629996543508
132274562;85.837002570291517;169.01488570143923;151.90229971084622;1.4183720603248335;1.4054407691677129
132274593;85.831088572352968;168.91939381288816;152.25788117042578;1.4184244074052259;1.4055039256480013
132274625;83.109812842817462;173.694397312061;154.45200922686274;1.4179749793439123;1.3975373288410953
132274656;84.065185570565035;174.15437270671603;152.52735218004497;1.4175206983390096;1.4003282759054012
132274687;83.3474962727033;176.50557024329825;153.11082154952288;1.4172779752428284;1.4002266213605616
132274718;83.383391871054954;176.67724211134069;153.42465336007732;1.4172601353118577;1.4002030700845758
132274765;83.991563325907521;174.86193759671295;151.77603519724661;1.4177476431819249;1.4025124889528708
132274796;84.17667108780077;174.27642371337453;151.50605282929632;1.4182817956560991;1.403832404378571
132274828;84.669641018799325;174.8150946525964;149.5171841271482;1.4172126313021087;1.4010393284357743
132274859;94.067360152753821;172.60053209719698;155.17469672784557;1.414692450903982;1.3784800708067606
132274890;96.448544486699959;174.66163674950818;158.98272540787525;1.4164358430603994;1.3641360673350538
132274921;95.036657304891108;176.01398882960243;161.56763972987417;1.4160402873845517;1.368580232483297
132274953;98.040815903862324;175.9056309716311;159.35263612826756;1.4151092401269168;1.3591377303274908
132275000;84.591776862321183;175.65602860256195;153.67854621833357;1.4132811494349133;1.3881055942216827
132275031;83.157753572092915;176.84450523586011;153.89639019363557;1.4151008709215398;1.3948328083913228
132275062;83.148222101013616;177.78611921339223;153.31376505012506;1.4153746618640095;1.3958148059717948
132275093;83.0933130248627;177.27789645064928;150.5163012438089;1.4161959853196402;1.4044625631380896
132275125;86.734994914867542;176.83475959862292;153.28007526845533;1.4129408022662719;1.3859177434727292
132275156;86.510564772109845;177.35939185312964;161.48452064355723;1.4129508023469921;1.3860061486103537
132275187;84.789772886834143;177.88428012360581;156.20715720445014;1.4140815744284776;1.3941405413165933
132275218;84.8951312987443;177.593260711541;160.5172015693413;1.4134925186273029;1.3929600597585905
132275265;84.079173379991872;178.36734821398358;164.12401976807985;1.4142026607699123;1.3949090077821633
132275296;83.305358036260316;178.94825980616756;164.06829528084498;1.4147068028457608;1.3971406523998629
132275328;82.697117972343918;178.66065196145024;151.06233646725735;1.4152123669587919;1.3988321509292809
132275359;82.93272856420316;179.17219739631528;160.69441214636288;1.4142900340497182;1.3974632549041239
132275390;82.3800205556954;178.60110003808984;151.74578527469848;1.4147078301471026;1.398649066528908
132275421;82.534589064046784;178.96590851365536;152.03264872113877;1.4143900470332689;1.3970346279786472
132275453;82.580134663078809;178.96899536237865;150.52077239670658;1.4139473908015448;1.3956047736075976
132275500;82.801254027106211;179.18741416189269;149.91731975158189;1.4134913710062482;1.3940126130723229
132275531;77.418805718346221;155.06036184080369;159.27976743940891;1.4130423548731135;1.4207183336205234
132275562;80.512768884806817;175.24583245997019;162.85727554074114;1.413309073308471;1.3936819655198351
132275593;80.925549000872365;175.98539647777861;164.93250278206719;1.413188217186319;1.3928416249394966
132275625;81.044067264024847;176.5058899229482;150.03862275157238;1.4133195272499208;1.3925681242885661
132275656;81.168294707976216;176.86290800870108;164.89769451206428;1.4134997428850822;1.3920354080114867
132275687;101.20829507016691;165.1155827915027;145.43087695119141;1.3702469203849013;1.3220124022252839
132275734;101.17670937260837;164.71740366913451;144.52157198964477;1.3703105966266636;1.3221112056294941
132275765;101.12942095490814;164.58527161592076;144.60811432493682;1.3703091612140002;1.3221453988544691
132275796;101.08835847223044;164.51836541213496;150.05482769380282;1.3703955648567194;1.3222842117961573
132275828;101.07026272192917;164.34354037884745;155.14279206372214;1.3704146110426168;1.3223304552388921
132275859;101.03211476413841;164.68167165926832;156.36372467290491;1.37043080873621;1.3223733591779576
132275890;100.97559165256345;164.80540084366919;156.57606573469835;1.3703800623309479;1.3223577581546353
132275921;100.76218934441151;164.87429736796639;156.78245784752289;1.3702333493153716;1.3225250264045358
132275953;100.6924186987832;164.5231726501487;147.13960703616181;1.3703047777600537;1.3227157576590152
132276000;100.54957804061138;164.69209897094675;146.91102583764376;1.3701754385841261;1.3227460536211475
132276031;100.52459491104119;164.58644990636307;155.96995011556408;1.370149412856281;1.3227165106574708
132276062;100.4821742764838;164.89920598042173;156.11113834566154;1.3701254896011852;1.3226872933608562
132276093;100.44527937998937;164.77197940511596;147.32323601694358;1.3700945303784977;1.3227006111417539
132276125;100.3668388128265;165.07669982648463;153.48071792011581;1.3700549707651013;1.3227941523943907
132276156;100.25628699378495;164.68999966591105;158.05776902836854;1.3699726944026558;1.3228601797345667
132276187;100.20993577739685;163.64485417482422;150.79735301660134;1.3699535877085614;1.3229196472415452
132276218;100.13416864305624;164.14209151998443;155.53835312400889;1.3698341013771449;1.3228853985962543
132276265;100.12136402684389;163.9215267424056;148.29048833062092;1.3698416603761583;1.3228562988620589
132276296;100.1147201874691;164.06947657928603;147.8151152100269;1.3698178908554848;1.3228022242964936
132276328;100.0926116779646;164.09752072286182;156.88051043718957;1.3697772459816013;1.3227692713442749
132276359;100.0451150640863;163.94746309461576;157.3582791218314;1.369721739742001;1.3227479861698912
132276390;100.57374782235303;162.90773637789224;157.50418722097339;1.369737190379372;1.3220499692710575
132276421;100.48661762182809;163.12832383022132;157.71053422719075;1.3696827267928557;1.3219329589344961
132276453;100.46025885953682;162.47640760075143;156.39931027504937;1.3696854462462564;1.3218794015294482
132276500;100.43271662806993;162.37118955131862;149.43974837956526;1.369690248164835;1.3218745979895414
132276531;100.424619736068;162.5991575658428;148.57625294743281;1.3696345854082386;1.3217596339608724
132276562;100.37460215927099;163.15904893486021;156.31145686867126;1.3695995310720297;1.3217214670691986
132276593;100.38326015379303;162.97234779953777;156.83129147395073;1.3695565363780748;1.321704020819102
132276625;100.35548221737803;163.11686721791426;157.22224098497358;1.3695096499444426;1.3216937771998625
132276656;100.36889500704075;163.37560780836157;146.49335587513139;1.3694296334466549;1.3216658628249238
132276687;100.40707760604087;163.5084600231591;155.65816179344122;1.369364894232844;1.3215694903473185
132276718;100.4028670804929;163.20507581021153;155.4401335535442;1.3693571060414642;1.3215838586301483
132276765;100.41562680165464;163.33613151211694;158.21130283998224;1.3693306318485183;1.3215367127607738
132276796;100.43860628155559;163.49248773418933;148.26085416171915;1.3693568916905758;1.3215227742989486
132276828;100.44826586770883;164.40481735489811;147.36589566123408;1.3692893016443186;1.3215424908261506
132276859;101.59915985271655;160.96094448520705;147.01768198537872;1.369290100314196;1.320957391111879
132276890;102.17810839310552;158.78970507973816;146.67780490823651;1.3692913177908928;1.3205906409418786
132276921;102.55850374462439;157.55020735159602;146.23095374346946;1.3692480976599657;1.3202398948850509
132276953;102.80440044474453;156.61497560864004;145.71000491841153;1.3692409657305935;1.320098004315696
132277000;102.7058745423429;158.28783502383297;154.55106380679507;1.3690312521563632;1.3200741914590832
132277031;102.4389207894741;159.17077731662641;146.9803408704621;1.3690486727781206;1.3203319871630048
132277062;102.28629798519984;159.84296023047398;146.3974297480641;1.3690678263725893;1.3203797959649373
132277093;102.73887429125504;158.03173783713621;153.90435422599774;1.3690730791756265;1.3201989121366411
132277125;103.13305390991403;156.80890850646716;145.70237432544167;1.3689969957598962;1.3199736712458863
132277156;102.90434767132939;157.50556686671402;148.29715051549277;1.3691052020042149;1.3203312255912
132277187;103.17563110920766;156.74938814789019;145.35467828425331;1.3691250719506325;1.3202500736925968
132277218;103.4444116822869;155.57235292376328;156.12401360129871;1.369153315515296;1.3200486814345402
132277265;103.62576675559767;155.38831616718451;156.0403856898435;1.3691324776597269;1.319923287193925
132277296;103.76416888876378;154.63495602731743;147.28114750581949;1.369079922307286;1.3197746476109382
132277328;103.91741999999174;153.98832865319267;156.25040651792483;1.3691249041669915;1.31973872430432
132277359;103.98258937097857;154.99198037574507;156.18562310656859;1.3691407451912947;1.3197231249642456
132277390;103.31192844843004;156.39705446829078;156.61283076672945;1.3691471052678963;1.3199467404354797
132277421;103.58367359840567;155.14342812301138;155.87279793262823;1.3691782982662832;1.3198523197446519
132277453;103.15957276082227;157.05639950894448;143.61378824625768;1.369172897326244;1.3200365226314077
132277500;103.45676643786966;156.14769721632237;143.5159165083773;1.3691908333177136;1.3198044711468528
132277531;103.64380930863018;155.61294623048573;143.55327901594893;1.3692394552447982;1.319754533763809
132277562;103.16741205981806;157.8025050805042;143.48698780796283;1.3692388285463157;1.3198505672739074
132277593;102.77453060601313;159.29902349426058;143.50760435637716;1.3692509140748992;1.3200137470934243
132277625;103.44417697219181;157.05757547772049;154.33259392904162;1.3690092401651246;1.3195594582224157
132277656;103.01216553968327;158.81498182539389;154.73617310094502;1.3690503105978924;1.3197157354886919
132277687;103.47610232967887;157.24207076399512;153.89023962281075;1.3690480315683553;1.3194556571672556
132277734;103.64837329167622;156.28948098758102;148.45549935417159;1.3690828832661586;1.3194240908515169
132277765;103.16918195932338;158.24721201014191;154.65832898047;1.3691019295770188;1.3195441487920039
132277796;102.7331778925149;159.78015589089111;142.62651030837242;1.3691481686258487;1.3198577876467212
132277828;103.13398552214839;158.16717933612864;145.57127222368558;1.369225658413449;1.3197477352316929
132277890;103.46100158691223;156.69576743019326;144.88517567676786;1.3693250719453989;1.3197372257443636
132277921;103.69836629231864;156.82905389468155;144.42678278513438;1.3693697973845045;1.3196639472044722
132277953;103.88086015127924;156.15942923370292;143.91190594698557;1.3693631689720522;1.3195163544056978
132277984;103.99553845926499;155.4447565979205;143.50125585215292;1.3693709347527283;1.3194362268010906
132278031;103.63808760857688;157.66608918901494;153.33729832590225;1.3692412292129295;1.3193962607266585
132278062;103.99192635382667;156.80950805678151;153.35341946842473;1.3691772700153757;1.3191830653377594
132278093;104.11537124659193;155.86865281941482;146.08633024574237;1.3693030492853016;1.3194031004851738
132278125;104.18202513812922;156.03638228014424;144.59999513910935;1.3693485087522919;1.3193870763547244
132278156;103.40912073466268;157.57753763494719;147.63189222230176;1.3693910262042244;1.3195809029692025
132278218;103.0525207210784;159.32411138674249;145.54811242534828;1.3694040640904981;1.3196693637850134
132278265;103.3790188992442;157.45622275699805;144.25959443268366;1.369412617109856;1.3196676671115366
132278296;103.02152290026974;158.85450743776914;148.63057026026922;1.3694587894449133;1.3199655179413505
132278328;103.42549226982374;158.58805329766742;149.26742693060561;1.3694979023888216;1.3196299895918873
132278359;103.60107080048445;157.43704141455967;149.93985931192177;1.3695245421566213;1.3197059194281002
132278390;103.15275857209061;158.55458245156717;145.94177691128877;1.3695131915151917;1.3197580654467458
132278421;103.27522553892018;158.49439481923508;154.32871023506567;1.3696343734708125;1.3199317828740615
132278453;103.45477388958102;157.88405542961283;145.06927843864943;1.3696617306836214;1.319876184025206
132278484;103.5724247769258;157.446623798954;143.36424068464683;1.3696503410104712;1.319762408813175
132278531;103.31437684146475;157.74438662424285;153.63825673208547;1.3695159263182886;1.3197928062876287
132278562;103.41717492109765;158.25082919929898;146.75649704090992;1.3696120750252221;1.3200097303554093
132278593;102.97616577915046;158.571643611388;144.79934947678234;1.3697467190956023;1.3204038077244287
132278625;102.64289932744087;159.30178596842174;144.61545462645483;1.3700540701928941;1.3210066044276025
132278656;103.00569539193185;157.62677650558698;144.37062931907704;1.3702481205625732;1.3210920192026014
132278687;102.63125679401978;158.96229835045222;144.18357691079959;1.3703811550620133;1.3214458462789767
132278718;103.07732154961852;157.58921599835884;144.15146448186647;1.3706358352136139;1.321423785860528
132278765;102.73378077090462;158.64926972379655;143.70025789232992;1.3706443068332419;1.3216149906365642
132278796;103.03134795992357;157.32689317528627;146.69832852768917;1.3706726235317577;1.3215443628196095
132278828;103.22830008353698;156.4534278206751;145.65112160862535;1.3706990799614318;1.3214517931777443
132278859;102.775793888512;157.73145910725552;144.84664724104636;1.370759659386019;1.3218283171964287
132278890;103.07511880502314;156.44130281886112;144.11733587058816;1.3709858319670114;1.3222177140968199
132278921;103.20029544897648;156.55359120883728;144.00403826043836;1.3710637306708366;1.3222957003538149
132278953;103.27691544988136;157.22962107021058;143.69036956056297;1.3710829406425733;1.3223033569286917
132279000;103.43340660622022;156.63605614390818;145.89988047514348;1.3711668139165416;1.322301655023864
132279031;102.8561737868386;157.77070590289205;144.65595549757595;1.3711909490784109;1.3226199892603454
132279062;103.13290864704652;156.92928458395679;154.40386197904786;1.3711856248511534;1.3223888908417132
132279093;102.57470106026516;158.77363469911961;142.40114324601652;1.3712435166347521;1.3225821106348858
132279125;102.26622435405169;160.11925802869664;142.28283621325045;1.3712781357262058;1.322730496984833
132279156;102.65801909280472;158.29442932272602;142.55757986741904;1.3712758353914372;1.3225774608923746
132279187;102.81154171855583;157.62831563671676;142.57737492694037;1.371294126767834;1.3225511363232085
132279234;102.45640493658452;158.77383257895684;142.57834331863023;1.3712470426729586;1.3226169386873858
132279265;102.10611557874609;160.52322752474674;145.2007729974938;1.3711660046319349;1.3226102123779908
132279296;101.90304048153286;161.27006677044898;155.11706716961828;1.3711677843105161;1.3226754828575797
132279328;102.1535962515635;160.10583457949571;155.44090413097013;1.3710271601157367;1.3224144486563714
132279359;101.83573743986921;160.63856330624441;155.76535678647707;1.3709909058324048;1.3224916305561254
132279390;101.64608289536385;161.30976604537625;153.60498533969246;1.370845707105258;1.3224600747440853
132279421;101.43926007184045;162.12692010204177;153.46390133370903;1.3705703696582363;1.3221576706282572
132279453;101.33047001127171;161.30132700927038;156.67735693364594;1.370293165016147;1.3217918843907845
132279500;101.80233219068755;159.64873549877373;154.11422217009061;1.3701052878212157;1.3213600765080165
132279531;102.12745676925388;157.81716353805953;156.52925063755126;1.3700557862844041;1.3212723708271774
132279562;101.80685052724647;159.36746217230163;157.00276866359465;1.3700176129287636;1.3215254024508003
132279593;101.70055752279629;160.07198514660487;156.9872446361293;1.3697788451826336;1.3213320793820498
132279625;101.56506953517273;160.660593471164;144.89423209997713;1.369575438231265;1.3212424715221356
132279656;101.9330258761085;158.86505302049483;154.69326505184566;1.3693142688288178;1.320757201704398
132279687;102.20261964781896;157.74916338047183;155.30001532617061;1.3691116661866065;1.3204594757226147
132279718;101.98232684343009;158.53325163082306;155.42065074023569;1.3689254506548556;1.3203061692361622
132279750;102.10951382446937;158.05336562425691;155.89478434009317;1.3688541369957998;1.3201641270679962
132279796;102.18687815065003;158.53793505051732;154.93203514024143;1.3687808149040379;1.3199355563725768
132279828;101.81997039022932;160.174250328582;156.46130763987745;1.3686197693503837;1.3198357100522982
132279859;101.63524699016085;160.26986338122245;147.02355257526736;1.368556849479085;1.3199199688725336
132279890;101.5125346775811;161.517360226042;146.34070953799173;1.3683291417370787;1.3196898761858917
132279921;101.53089370440246;161.18287400833694;145.73123418193038;1.3683113399893505;1.3196153575203427
132279953;101.45358276047273;161.85090457644353;145.14089696146019;1.3681562086078278;1.3194425518056618
132280000;101.40652627013253;161.84526886724771;149.06136831873494;1.3681380244147752;1.3193941960903359
132280031;101.37877905923673;162.88481489063591;147.21835911084384;1.3679821789426958;1.3192141375503257
132280062;101.36658247933175;162.62797532282116;146.16686278991048;1.3679054010577554;1.31910601698884
132280093;101.54030566913286;161.96093363062414;156.42378266837386;1.3678730696657366;1.3188167157349293
132280125;101.90892487614657;160.7176894371726;144.72269766822191;1.3677708525507546;1.31840145518885
132280156;102.14691521688661;159.60516312880657;155.45711849242261;1.3677282376119082;1.3182347357979725
132280187;102.32628821349083;159.00583707099696;145.9235947215079;1.3677024778115521;1.3181219760848844
132280218;102.46011100657951;158.16534879589247;145.72071216956749;1.3676975635605508;1.3180049088976868
132280265;102.24110325769257;158.93103880650844;145.540269783481;1.3676972136305958;1.3180762560054109
132280296;102.37684507155646;158.82762960719441;154.82178375904599;1.3675808890395891;1.3179005504258652
132280328;102.53851392561795;157.57122168301586;147.62541870800698;1.3675922144539163;1.3179018521560553
132280359;102.72946593329866;157.12235813292867;156.57497918216785;1.3676109789152489;1.3177934663228521
132280390;102.80703420733136;156.63950740661861;145.22367387445493;1.3677003345830432;1.3180616376398058
132280421;102.92008616978279;156.05156970818447;155.81142189403298;1.3676629102625191;1.3180719414246023
132280453;102.4631627151394;157.82735591772533;156.32268930373044;1.3676548243263569;1.3182633733446458
132280500;102.1366195470841;158.96990074457895;155.05807957771859;1.3677559876100365;1.3187276741217817
132280531;101.93287489664002;160.25209161626518;146.57150234099782;1.3677607125488791;1.3187185065665954
132280562;102.34832235011328;158.56283877022713;145.16516215977404;1.3677943886694948;1.3185477995672803
132280593;102.6526393588954;157.0595787011527;157.85927772121693;1.3677819828118172;1.3184521260606392
132280625;102.12780067199805;159.432231771996;157.86665775558146;1.3677529116798359;1.3185818619749596
132280656;101.97970723189228;160.05648794992516;155.7646049077525;1.3677546271800776;1.3186555412423651
132280687;101.7697992798601;160.57902554089364;157.39303561121096;1.3678693035210794;1.3190810766252956
132280718;101.63356300864916;161.4379155126035;155.72019840703334;1.3679544803792294;1.3192830990792017
132280765;101.37038119795619;161.39646020299912;148.50189203532997;1.3682091897680138;1.3198882675707049
132280796;101.24829006948254;162.59428346266824;150.04787804279482;1.3682194433208246;1.3200736914136806
132280828;101.15112773347838;162.66850176346105;145.74806620991259;1.3683738422344067;1.3204032772806671
132280859;101.12992139046942;162.95186001031706;153.83569073031384;1.3684636716329408;1.3205174463097698
132280890;101.0273837356266;163.11424998010753;145.80896323900473;1.3685013491135833;1.320685697758202
132280921;100.98868364187895;162.6754339564431;148.89734293811182;1.368833938847744;1.3210956056228616
132280953;100.9401843060792;163.52811030953095;146.78258244624317;1.3688753407861607;1.3212231811873396
132281000;100.80459370053551;163.58308185280063;137.26463812326514;1.3690962617985349;1.3217481282112464
132281031;102.03369489235907;159.47903555301687;136.48455909792108;1.3690370293251928;1.3214102706740527
132281062;102.6767252710959;157.67759159431986;136.06198510849242;1.3689872489551835;1.3210506154018509
132281093;102.9960617152461;156.45305758926844;133.72163735337179;1.3690915330262785;1.3211638733263271
132281125;103.20007374586032;155.99111384980463;133.24149354406598;1.3691518471963544;1.3212127497140349
132281156;103.48748729387134;155.93971757848232;134.4734823945636;1.3690972306846949;1.3211507436407863
132281187;103.78155630886334;155.4092900830936;134.65283456668047;1.369057569717038;1.3209368634802003
132281234;103.37912471108332;156.55501726514893;134.28653258208189;1.3692261094123917;1.3216195448296462
132281265;103.54839532733452;155.82181719953661;134.02389474086041;1.3692733080010138;1.3215818937254282
132281296;103.81459447215786;155.50533024953396;134.27803984355032;1.36926303175053;1.321479694883728
132281328;103.83327669766226;155.5215754073943;149.56075180029455;1.3694780050098321;1.3218345056867471
132281359;103.97904138559413;155.24219763336848;144.63488979813653;1.3695090219229695;1.3219265062140717
132281390;104.04804016628154;154.92142895188334;143.89153994369838;1.3695542293669456;1.3220002077955779
132281421;104.09939121792517;154.6168290005055;143.16672318796998;1.3696014796681773;1.3220692270525489
132281453;104.43912502742849;153.24698566777158;149.86345043213035;1.36958035969779;1.3218937795814854
132281484;104.49425843731241;152.89959024938614;145.559507369878;1.3696153287943844;1.3219717114630947
132281531;104.51580264583407;152.85051319018754;143.2382377848935;1.3696072845861296;1.3220717086216016
132281562;104.55303455766727;152.97832033772266;142.89681023222741;1.3696451749524052;1.3221605848921105
132281593;104.58887154074543;153.34944137844582;142.37720881101333;1.3696657462785447;1.3222057317754412
132281625;104.61501114208696;153.89900967128585;142.19961884117853;1.3696865804787286;1.3222307757809597
132281656;104.62628013258473;154.4192688844384;142.14289023463226;1.36971378352208;1.3223192636810326
132281687;104.68371408369292;155.04772805772481;142.20627384007779;1.3696656307531947;1.3222111715758602
132281718;104.70983047816883;154.94687182189239;142.12548885445617;1.3697345296492809;1.3222907439107685
132281750;104.77406553846542;154.76222794359688;142.14159087585716;1.3697575014214354;1.3222507334859723
132281796;104.83384466090865;154.31291022332269;142.06055456631907;1.3697259383955487;1.3221945613200048
132281828;105.08181000456719;153.8296998132754;149.56182740729318;1.3695853323664611;1.3218796959215537
132281859;105.11295400831277;153.67463942281134;149.79889929615996;1.3696058790296186;1.3218951445908873
132281890;105.23139581112534;153.20075141620106;144.65063684428495;1.3696223023354184;1.3217684600204342
132281921;105.29736815782151;153.14268267798479;143.31338118484689;1.3696380379431423;1.3217419688201124
132281953;105.34688939072292;152.77489965994883;145.59617009612123;1.3696777705452827;1.3217786947614105
132282000;105.60751564263978;153.1442148761096;148.46788870688741;1.3695319493305767;1.3215339624534512
132282031;105.84580840326315;153.7294573293631;149.25680046409482;1.3693975026077834;1.3212851573305309
132282062;106.0920332960808;154.2047694495769;143.812011117051;1.3693697506214291;1.3210835430286141
132282125;30.104421887938717;95.591867472880793;151.29739703756755;1.4066488767976026;1.4644898773757902
132282156;29.676459302388533;116.20557341142012;160.86672410028592;1.4067305056586394;1.4562744821077445
132282187;30.668417419659484;96.109599167730849;160.6816647410466;1.4068527595810376;1.4542344405431509
132282218;31.223647534302653;98.444576032402935;151.25539136845626;1.4086476757361341;1.46031778118042
132282265;31.174207131746297;96.506741384337076;155.83671973754454;1.4085041668922125;1.4602404362754553
132282296;30.986160267459713;94.834756534366861;162.71074588438881;1.4086686236895369;1.4603792491308933
132282328;30.851817514749722;93.289529279343114;162.42011160144961;1.4083404701268294;1.4605433134561765
132282359;30.820957810080408;92.038301746063468;162.21981011511784;1.4078937991925742;1.4603425558037277
132282390;30.127574358451728;108.21732071685811;157.4568423056366;1.4084665394281619;1.4619953943619839
132282421;26.868925730600107;118.30302985500744;153.07812264833393;1.4080748755797639;1.4681833157681483
132282453;27.412344547756678;115.90314549519405;157.81611834071029;1.4076921105125566;1.4672574446560269
132282500;27.927506067222435;114.19793889326354;158.41502424062932;1.4074123698867593;1.4664268592991154
132282531;33.552321973685949;103.54016893047773;154.63729517993988;1.4076252627593962;1.4483626511400303
132282562;30.636540209300822;111.72166841840169;152.27485108841307;1.4081268486537182;1.4548471298503451
132282593;34.556890117371495;91.775436810706353;152.149679558964;1.4090535568026914;1.4651449119304976
132282625;34.200617739081288;87.5070836640144;154.80079609955547;1.4087014214946052;1.4667673455666239
132282656;32.103657128420387;83.256179382591085;154.54996091364589;1.4084711921833251;1.4644046452539465
132282687;30.365559353361505;177.51781132042925;154.86338986534491;1.4079554842010085;1.5115387737003516
132282718;30.771896761804534;177.5175130277911;154.73624578730951;1.4072313234401028;1.510334451393464
132282796;31.133127265618551;177.51728450454939;151.27175582326004;1.4077294049729805;1.5097634629026884
132282828;31.088117196826769;177.5182418319794;154.45499849947748;1.4074795905935356;1.5082396211370648
132282859;31.26382262534981;177.51509596880237;150.33877157437283;1.4076062608428162;1.5079485725167816
132282890;31.271411864187765;177.50182842934504;153.4646648238224;1.4076644217413139;1.5069687966521137
132282921;31.622687108624309;177.48990146520194;151.67149993660021;1.4084118328751865;1.506539798441743
132282953;30.350889981001419;177.52023984762383;155.24487710845094;1.4082120722218503;1.5105590732597796
132283000;30.724038433988429;177.52025790297083;151.61661782129173;1.4085320393527414;1.5088684148144957
132283031;31.105466159067415;177.51984646164169;153.73950063767114;1.4080411119396641;1.507672867598495
132283062;29.998571087429465;177.52054753337228;152.71999998255191;1.4082352725595413;1.5114988629102431
132283093;30.374217820570294;177.520599480735;152.04506254673817;1.4092215866657574;1.5115615462449503
132283125;31.129186535634737;177.52037832264344;151.67227400863948;1.4091345338166734;1.5096536901253712
132283156;31.381604112710271;177.52061150074385;152.61492516821124;1.4089941013854113;1.5088932267887578
132283187;31.611427182137678;177.51399628864797;151.79359402523696;1.4093026047011406;1.5083075051978951
132283234;31.358663791284908;177.51037504694355;153.51100632425505;1.4092301720365923;1.5075989180419176
132283265;31.566114137195925;177.50310235726866;153.22450154274819;1.4094957393581937;1.5070874589575465
132283296;31.821166414999013;177.49236122327287;152.35313653221368;1.4097719809494191;1.5069658226852822
132283328;31.852612254605042;177.49105764584749;152.13564728123751;1.4099719487824181;1.5069225950773535
132283359;32.019329049427427;177.47929783779972;151.86987301875013;1.4097693075072564;1.5067058668396727
132283390;32.125325227202254;177.47621600269494;151.574393131901;1.4100745184836707;1.5066299275979691
132283421;32.127520111641665;177.47497651020788;153.15533757155376;1.4101472665674564;1.506714074119291
132283453;31.778247509241687;177.50699384717819;150.99659752666997;1.4111863384261829;1.5097032634359358
132283500;31.385206952323486;177.52429050202952;152.09175469626797;1.4109248863305501;1.5111707321853172
132283531;31.326470751234623;177.52269777483426;153.45292440695229;1.4107385666878638;1.5110818953421743
132283562;31.384826417162078;177.52184362825244;150.1786625879482;1.4107291802865378;1.5110383769993823
132283593;31.491755215567519;177.51682506270842;150.32059505696583;1.4110133647187577;1.5111316971282023
132283625;31.487734677208483;177.52568156543504;150.70590317438936;1.4113946226354495;1.5123821974115492
132283656;31.925692550217182;177.5038094226054;149.98910465696375;1.4115943956800294;1.5115018050556504
132283687;32.62554643394153;177.45943525175531;150.57464957489157;1.4110019704497476;1.5077112720177912
132283718;32.786482729719019;177.46742864788573;150.77004246844359;1.4111419033218651;1.5087292627572453
132283765;32.59898811995005;177.47211758300011;150.65435738717821;1.4108819854057366;1.5090697872969112
132283796;32.014069336419048;177.51711244646691;150.51766960653495;1.4122759832918774;1.5124365202556063
132283828;100.47407058324824;170.349176595769;158.61212559810608;1.4150117294755134;1.3864072523070452
132283859;101.32312290624635;169.04521846905959;157.60935748243665;1.4140590042892567;1.3882221371181043
132283890;109.48094954329343;166.57131097089263;162.03609639430988;1.4147254038203945;1.367541258338802
132283921;102.48115190695219;168.70141999248475;158.4603348029853;1.4159699696233052;1.386122972434066
132283953;108.36188456807186;166.47004634550927;156.18370265784893;1.414057285427238;1.3725826879718572
132283984;102.86134248099371;167.81412297762174;154.26648342485433;1.4162317853102617;1.3857076676103621
132284031;96.456084920989568;178.67387868221945;153.42133771921695;1.4173263980188195;1.3950952154123519
132284062;103.7112953835975;176.98214507039677;157.03133703552507;1.4170602651338842;1.3753050085248164
132284093;102.38891545955966;173.94909556799485;154.31208916510951;1.4166882435065;1.3790302910376957
132284125;102.80787027495323;175.79774406176549;155.11011624164613;1.4166680665389753;1.3767620481765548
132284156;102.17404561453937;173.83108396770913;152.886563093972;1.4166677352985502;1.3816206485257925
132284187;96.118103603812827;174.53346188329724;153.65671353534026;1.4204977636639744;1.394254234160011
132284234;85.291705008116139;177.22877831737634;148.65326251955483;1.4219695575693438;1.4312859812382359
132284265;86.179857605917192;176.43415138314188;148.63897362284752;1.4211450478653043;1.4294316132284179
132284296;87.26133732504;176.6617419884189;149.1716215737608;1.4210034558536098;1.4269188384914942
132284328;94.692642569639432;173.85886143426507;145.61637412510225;1.4250726061464771;1.4183350430724653
132284359;97.243493556007223;175.00577067935811;148.4651197630719;1.4246820071443185;1.4106370375729824
132284390;101.52089073049139;173.27491556186163;159.98642575205261;1.4350528282778641;1.3876794460464343
132284421;100.05624934589066;170.61355622276469;160.3457474961221;1.4343440172462521;1.3871038011691288
132284453;99.035383457684674;167.99635787170587;162.24662697402815;1.4365445159263017;1.3851995401321033
132284500;98.950215995538358;165.27004071074481;162.41439385567614;1.4372331109513525;1.3858521665443475
132284531;100.00417158751282;166.1895008128526;162.01776106373819;1.436911100575472;1.3845100002378907
132284562;96.960703648679953;166.78643120518595;159.19041810888004;1.4384674619163824;1.3953436106893129
132284593;92.923511336994665;100.96311038677916;157.99771597517326;1.4396199156532394;1.3429045528140586
132284625;92.470034571493983;100.64338777823231;157.16660413001654;1.4405929552966705;1.3455879843105161
132284656;92.49834708467516;99.512762599729541;157.787759702714;1.4410035214722583;1.3438279169335745
132284687;96.466776692785729;98.606195833759557;159.13887482603187;1.4427918119550218;1.3407837447766458
132284734;95.960450026663935;97.751083097335652;159.02663277249221;1.4434670900237712;1.3405349054421509
132284765;94.992621556102009;96.928146198526051;158.1883828678736;1.4443077487107214;1.3422632075424135
132284796;97.507162774484456;96.35821330220891;158.23452050455217;1.4457542510405566;1.3407052173709593
132284828;96.03770615946209;157.77196504552973;114.5846797063419;1.530454515298969;1.2897394552759214
132284859;96.305386953056015;156.59492757005106;114.8654340604547;1.5294735862218152;1.2901213191868473
132284890;97.717274800408518;158.9851007276998;116.39652065213915;1.529807956876881;1.2939412936481505
132284921;97.477553560099892;160.18872596928767;116.62187044997292;1.5295949682404855;1.2935779976387469
132284953;97.178205137925374;160.43302501048055;116.87028836306526;1.5293493677554131;1.2933902390503183
132285000;99.2180528599607;160.98874278426632;119.55113663711846;1.5289970203508607;1.2974370352502407
132285031;100.6796760478946;159.94878392170767;120.60418884980871;1.5281560103593086;1.2997417281661559
132285062;101.01806154840293;160.05576089904182;121.44443639220306;1.5281891419382059;1.3004807533270075
132285093;102.09683431124664;158.59030894598291;122.04484222197888;1.5275243585537219;1.3023978470385889
132285125;102.44443296561012;158.93073263331539;122.05081368132981;1.5271481833963909;1.3028830176390513
132285156;102.67574477289047;160.65161964961885;122.13996690320585;1.526881255445905;1.303194816624093
132285187;102.8153351834689;158.45091579864413;123.16224108413418;1.5266131016644831;1.3035968833991309
132285234;102.8498801761243;156.87354856610119;123.84444845466733;1.5263774185265415;1.3034056706946813
132285265;102.71267350338727;155.54536117302936;123.64387972912078;1.5263533760652537;1.3032671323095781
132285296;102.08991020036592;160.62589822458858;123.77763151224656;1.5270590231618384;1.3023343909575413
132285328;102.0052092935771;155.4129955357017;124.45689874429453;1.5272588835820278;1.3027190970701876
132285359;101.49223860895656;158.75716204271168;124.24872383220601;1.5273073253891709;1.3021991858139064
132285390;100.92271455079265;157.50179581726115;122.31189177320736;1.5265181027760015;1.3009435839974046
132285421;100.71851345924482;161.39193024359605;121.53679132227337;1.5264239471815591;1.3005510874288666
132285453;100.65709146475358;157.98410304751292;120.84020896330615;1.5263911291029506;1.3002681844110016
132285484;100.53586001464473;161.51084499381551;120.46416249051065;1.52647153094607;1.3005124902622247
132285531;100.54716179093022;161.75288261331255;120.29063892042103;1.5264572964861725;1.3005930634274074
132285562;102.65169144961438;157.78514556862987;117.95408890788549;1.525044057317569;1.305660126979368
132285593;102.66230171849533;160.84944059825904;118.89544973997384;1.5251825094907425;1.305959026597693
132285625;102.03691940353217;160.61357382368684;119.22456068052861;1.5253825082885897;1.304862097168668
132285656;101.44136156963039;160.57134883605207;119.17997545469031;1.5258198870114084;1.3040505690271036
132285687;96.2074668199356;176.42509148945351;119.07314010655747;1.526314310658051;1.296428496984811
132285718;96.12280080676635;176.37350333970645;118.82246341246898;1.5265689229888086;1.2968791187731126
132285765;95.8680523614131;176.43397779781986;118.83041432979614;1.5268799028761764;1.2967411296341875
132285796;95.997612302168946;176.76554879383582;118.64652436774519;1.5271610387637535;1.2977081847299923
132285828;96.092830836805462;176.5378563352343;118.69551443602579;1.5272501212205776;1.2982069055514165
132285859;96.0969924532375;176.67828745960304;118.69658384365762;1.5273819595823772;1.2989123672358474
132285890;96.075060070629462;177.37185501153448;118.63424766405666;1.527518301439482;1.2998144038637163
132285921;96.1112690253189;177.64672746332118;118.51118631416838;1.5277122397787155;1.3001872127392162
132285953;96.312383601066387;178.3309919416898;118.5572983128024;1.527833938011103;1.3018461280096156
132286000;96.385384999544243;178.04440148832202;118.38369155222408;1.5279971426949841;1.3022753591602543
132286031;96.398557092991823;177.89506610741697;118.32925683672092;1.5282216878599451;1.3026792268435519
132286062;96.205007154611351;177.67944775248617;118.0651174278708;1.5288203474755329;1.3037119844178779
132286093;95.946267558179031;177.99189159569852;118.17838050603017;1.5289125192352455;1.3038111098490528
132286125;95.960090080912138;177.73208147151183;118.23556514976029;1.5290214961262243;1.3043258070551902
132286156;96.398041752231975;176.59485401549233;118.50801049567583;1.5292857882838444;1.3054872087861642
132286187;96.3151511375841;176.89300318961782;118.6260553231815;1.5296459313480346;1.3069266114959373
132286218;96.452947406880739;176.69817985288779;118.90023898023679;1.5299251565737917;1.3081920100635305
132286265;95.606342060628961;175.99775475474763;118.92167209192049;1.5300766425120871;1.3081034915373353
132286296;95.515454964320057;175.12153655952383;119.11723900167691;1.5301499372380443;1.3086774887631467
132286328;95.347367313336363;174.55634807017174;119.17840025114855;1.5302774593727828;1.3091955631569103
132286359;95.266163497772951;173.73033091351419;119.47097720710042;1.5304170521169103;1.3096916297534527
132286390;95.170668282923018;173.72959434382005;119.52091948082264;1.5303788046528919;1.309677624806858
132286421;95.202793608443528;173.74656598403232;119.58889076537466;1.5303515678133879;1.3094833405935704
132286453;138.60826695883864;174.54189033653816;146.28129676223929;1.4145401921324521;1.3531719605805581
132286500;138.50366934055879;175.49805798960858;145.81589668152344;1.4142094399496366;1.3522070286057186
132286531;138.79743103358373;160.392288287682;144.89847794077;1.4135994748370639;1.3484541244125599
132286562;139.49645376506453;175.60275779295165;144.49783606002055;1.413235858548602;1.346878994534862
132286593;130.23422009160134;172.3800057103833;145.83092706496973;1.4116400674101479;1.3523458656020102
132286625;133.96548146879559;176.64448351518797;145.56234837377352;1.4136443094022353;1.3507285308826402
132286656;115.28702465511918;144.35537715456005;118.9996477733944;1.5280173323326169;1.3283553121055984
132286687;129.06988861931404;175.54112795961075;145.81581015867502;1.4099909859165647;1.3447318125032315
132286734;128.8838109236975;176.74049535865129;145.64272522675904;1.4096260945901951;1.3436264850378268
132286765;135.73249224806796;178.15153804206176;141.59827407497355;1.4009436420204362;1.3253573418969351
132286796;135.12960850112404;177.40587131543998;141.33010981952114;1.4004932827816305;1.3236866677353885
132286828;134.5916777939411;176.40861462516054;141.01005221264072;1.3999917724502262;1.3222905009434418
132286859;134.07283742759765;175.853535861969;140.79081285811569;1.3996443020978528;1.3211959003774287
132286890;119.53735733832605;164.43091499397082;150.57569638881091;1.4211932706923507;1.3826037784714655
132286921;118.28188095776275;165.19569726768424;150.61171572671475;1.4213503730007546;1.3826537880594532
132286953;117.29358346794108;165.5869397376664;150.73292072790477;1.4216557287238154;1.3831216205346339
132286984;116.45540013899516;165.84362632676348;150.67687308504341;1.4216766034589987;1.3833358648314367
132287031;115.81507627625807;165.80842910514471;150.76289203295571;1.4218261421231879;1.3837481796168285
132287062;115.36011067821133;165.70115440900744;150.77291263599216;1.4217984489083033;1.3835593734450111
132287093;115.08945781797188;166.01636566147406;150.78358039538645;1.4217527633099063;1.3832414822475467
132287125;114.72773742687257;165.58557585356155;150.79255399982512;1.4217412406865475;1.3831987399572274
132287156;114.38118060703467;166.09506111179326;150.79524693212;1.421736733646346;1.3829699747509625
132287187;114.14900680307804;165.534319389369;150.66485019502832;1.4216790190872988;1.3828679980224699
132287234;113.52019712598252;165.90400991922394;150.73183499398755;1.4218904307507825;1.3830816166386191
132287250;112.72194592798957;165.76431820840674;150.90216656081316;1.4221765870621121;1.3833774439799778
132287296;112.21240893649052;165.71656032068273;150.9701498529474;1.4222405784100554;1.3835139801288985
132287359;112.25825296141449;166.15187564738267;150.62583331877679;1.4219897638356727;1.3820576848563888
132287390;111.76226893562415;165.79246824963573;150.61984648426071;1.4215500796522285;1.3815471169413249
132287421;111.38659189087538;165.43034196266382;150.49867584723185;1.4212689604288284;1.3813201893663465
132287453;110.87930568213426;165.73006006238217;150.38024352219932;1.4211799111774628;1.3818180062244221
132287500;110.48365978546347;165.87744376325435;150.39805327434635;1.4210805415999892;1.3818271494504051
132287531;109.99324559147416;166.44901771302506;150.47995698360356;1.4209055420483829;1.3820241188061597
132287562;109.62843350275604;166.12715056513446;150.60003620302587;1.4208789768270629;1.3821921742077992
132287593;109.49904478878858;166.1648280962259;150.62027497738231;1.4209001346126482;1.3823708695005557
132287625;109.38278963627084;166.23856337359956;150.56018383125959;1.4209924823826774;1.3825655615425887
132287656;109.24496625744506;166.4360783784758;150.53887929609732;1.4211444131651105;1.3828902404071264
132287687;109.12060784054216;166.77313709784576;150.54893210192597;1.4212168790164075;1.3832574046957107
132287718;111.06255962753039;165.93645691008092;149.95098719016477;1.4196778470369043;1.3771475375414759
132287765;110.94708245489409;166.00218530491537;150.1176312776048;1.4209399279181298;1.3794570267941704
132287796;110.88982785514273;165.61765964207197;150.51310027829771;1.4222630983833953;1.3821787632620806
132287828;110.10100052675509;165.84870539470987;151.01732848753406;1.4239174892319613;1.3848905187088674
132287859;109.7839998548093;166.03912598136597;151.22253616626398;1.424621225566318;1.3861822123956529
132287890;109.52888064417964;165.74358311841;151.3739014671913;1.425606440333322;1.3880280323799306
132287921;109.01883557929497;166.11680792618589;151.82129912073367;1.4276443186104897;1.391052718400984
132287953;108.99812941047176;165.90234211844924;152.07536314515662;1.4295520042989598;1.3940805266030694
132288000;109.01346825956001;165.28837941010667;152.52666547688861;1.4310760447563653;1.3964523646818103
132288031;108.76636494458367;165.05269796890866;152.78239794980948;1.4334674148853983;1.399308210859975
132288062;108.61765225728973;165.36365531293305;153.06523441237792;1.4357387369476906;1.4024868679560798
132288093;108.3376937681237;165.006972095138;152.1248778955073;1.4462925252884282;1.4117090686632436
132288125;108.42563627765748;165.1276138038555;151.26589935179086;1.4520629535464462;1.4174688947644338
132288156;108.9278948437736;164.00597454444659;150.31716524967928;1.4565319651475301;1.4239713246852728
