TimeStamp;AngleElbow;AngleWrist;AngleShoulder;LShoulderElbow;LElbowWrist
134009265;165.13514945372924;128.09214731362008;134.14722861647746;1.1433196710491598;1.1697522563428009
134009296;110.91915906732406;178.24900545317465;132.436117079159;1.1326065453578036;1.1091634869966591
134009328;108.53285215988306;178.66494618229103;134.8086338024178;1.1302210725200395;1.1041163367311828
134009359;105.64309015917448;178.79471145677582;136.88754249043467;1.1320908324792349;1.1160030651861361
134009390;88.556596252376835;138.34600607657029;138.31991745177754;1.1326619326047627;1.302323093918851
134009421;85.414509272138531;113.93449871352973;140.75010389192539;1.1372782518581632;1.3011158114064343
134009453;83.311674379781323;108.53587571360022;142.22133317874349;1.1413630854662553;1.2977213794611509
134009484;80.998045786038858;116.31548798838435;143.97328707138991;1.1479643913113253;1.2910992123966305
134009531;81.377160735641638;106.45011228987943;146.70398805841424;1.149234336796984;1.2878967590052435
134009562;96.7022973868459;179.08551808681204;150.67537496139548;1.1597483287470256;1.1350643583380693
134009593;118.91844299576377;148.05940666826714;147.50558480881276;1.1474422964179254;1.1816021256939759
134009625;115.62724065750719;151.6307345586626;148.46886760838663;1.1511142206111236;1.178519679626109
134009656;115.73021155008759;154.84491835624687;147.61116627171339;1.1584771904102171;1.17635990655229
134009687;81.5635395677621;172.50454024610275;147.91393188756388;1.1652946540893181;1.3830027884586877
134009718;84.11123209917379;147.32037864680621;146.58756328597158;1.1792585767260919;1.4108122355671573
134009750;84.939703430718012;147.855796444726;146.16584304372466;1.1827181934848816;1.4102457916524953
134009796;94.4530266307714;132.7903290897105;147.81956535499859;1.1870449346667962;1.3961903613867766
134009828;109.28929802282683;108.33443813641361;148.1237913576702;1.1914251029823935;1.3850706545141498
134009859;107.52666010056312;112.18305930160959;147.56557825760783;1.1957113172711564;1.3914844562742617
134009890;90.252461700037244;154.74988672465639;147.61392354057773;1.1979408349003864;1.4087260212509136
134009921;131.71503915831417;139.11752758181672;147.74001187078616;1.2000293534079431;1.1952225681510789
134009953;116.27334254517919;172.33952776808798;147.2565186954289;1.2025310994089775;1.1380020188317084
134009984;127.53892288064714;151.92768958901257;146.79670837175198;1.2051482050628644;1.2006904889392824
134010015;128.01296181234943;149.95223919481239;145.40809877639751;1.2069984965119043;1.2083663017007265
134010062;121.20947619812844;156.35167383226488;144.47908922270764;1.2096099059859626;1.1748077532734804
134010093;123.64565195515307;159.18962412850075;145.20874196847547;1.2120944309541715;1.1793682884623578
134010125;126.98277381023439;166.9654676338308;142.47808856183403;1.2132192790820608;1.1640447536268275
134010156;138.88287779861122;145.34130528657505;141.22628904481346;1.2191796077767527;1.22525689813037
134010187;133.47194964375169;150.08050420986183;140.97630400421053;1.2237712344195095;1.2075581993244575
134010218;131.53327346397245;151.53315400456759;140.87308676285494;1.229795581799267;1.211741261466103
134010265;163.37584331336609;116.07820594205859;141.12771549122758;1.2483497034629407;1.2937962687207465
134010281;167.8273297980607;115.29573454001763;136.6158790156781;1.2504079823851477;1.2990350375331139
134010328;141.73366684285284;158.17966400645372;132.56972557005361;1.2558713887630857;1.2085019628436473
134010359;130.73632093347322;177.72024880381918;129.21207198106384;1.2715574356047721;1.2589021883384826
134010390;130.47092590502095;176.95909849001328;129.9184594877878;1.27422336798382;1.2606127713777129
134010421;136.91731066289637;167.90959187994577;122.51645536522176;1.2788043924404124;1.2400945280918947
134010453;138.55647632354004;172.09560360606938;122.4041627784019;1.285420551129054;1.2411542919883549
134010484;139.56739691350379;172.32975525617815;121.30492563429573;1.2899587584718535;1.2435349038316232
134010515;131.35986238334388;174.185904805495;127.31197982599167;1.3059735965241361;1.2577999138803382
134010546;135.99529775633116;175.97397248851678;121.7442395860645;1.3078656529129267;1.2576629091265463
134010593;137.62965334202602;176.06588792397386;123.25625328686249;1.3120615416460451;1.2575679859073323
134010625;134.76234222841282;176.99537635867364;130.11138877739333;1.3205961861930946;1.2613923121988959
134010656;136.6529512094512;163.46644323209404;132.1488613283901;1.3257406363844091;1.2715601888979322
134010687;129.98812589637734;171.15939086177133;133.68706273441705;1.3315381753772544;1.2678441954081818
134010718;127.94916598591067;171.49615356243157;135.18252360393763;1.3386953639990891;1.2735711717540947
134010750;126.75044282065362;170.2907325431851;134.49871853774033;1.3422432932289456;1.2775789473212542
134010796;126.79468567675201;170.66092603773177;133.83620530377974;1.348336009255942;1.2818818967581813
134010828;126.34861211001169;170.29601832131326;134.69975746769626;1.3545651795599587;1.2865450308624367
134010859;126.51688911287685;170.75180411488503;136.16667578001449;1.3588283712131539;1.2891671591026226
134010890;126.29904981114585;169.63587460844846;136.63739416566813;1.362830133560756;1.2908898293255442
134010921;123.44645493253162;170.10877052021328;141.02129776865209;1.3693682030138894;1.2942828506712845
134010953;118.82547802455117;174.11739209702796;142.94916662554826;1.3764643872626745;1.2965314749712038
134010984;120.51334159031228;174.47083350832284;141.48592859231397;1.3784442898836469;1.2969075373500809
134011031;117.8146505925743;172.931445265023;142.17824127207919;1.3825921565543715;1.3010222424541089
134011062;116.13864444006941;169.41357902092207;145.96846353523631;1.3878541081801634;1.3064874411149237
134011093;107.08072075678972;177.03478659466063;146.13035263775939;1.3937792500606541;1.3124620636848774
134011125;108.75192848213483;165.405277714513;146.13539171529138;1.3961337276984664;1.3273045213700931
134011156;128.43661858184751;122.44681610227761;146.87277456207539;1.400140812725287;1.3721998518799079
134011187;103.9521789106671;176.56479666433421;151.91270240373996;1.4058086136718047;1.3332390973690658
134011218;100.89762832216607;174.78313217772998;151.50180265455148;1.4094992181857693;1.3374926673226213
134011250;100.77326966824148;173.04768614440144;154.38736905750622;1.4123875125036991;1.3396663341573185
134011296;100.54204900295287;172.37120427746407;156.74490478773816;1.4148345708917025;1.3425431539503145
134011328;101.67327679483815;173.23428924401296;158.61717355258949;1.413919580729933;1.341639919635333
134011359;101.55895371284962;172.56786204200321;159.83726473656478;1.4146329682594505;1.3431419552096735
134011390;108.779088493795;157.32072256957434;161.22100092525292;1.4157587230585524;1.3538359629637642
134011421;110.61424668454353;154.64021182359505;162.4003557210923;1.4179803196020968;1.3522568299699207
134011453;123.62701472788049;127.18936048502901;161.17075394957783;1.4269290940693729;1.3854173280097348
134011484;97.911852783217711;176.92437392314221;159.55597970975779;1.4263743960340956;1.3710799781078531
134011515;121.39673920074111;128.46457625768647;157.61935822682383;1.4284604031796968;1.3926229439271964
134011562;96.371720929532259;174.47152925332017;155.79602436976435;1.4294304416549881;1.3826850991082058
134011593;137.52966465254383;170.86086688525626;146.04912570177302;1.3935776350763822;1.2988239330324172
134011625;139.36797775786883;178.71943626399184;148.16677409880242;1.3970044337013317;1.3108033028774373
134011656;137.09453263794828;172.35560028384577;148.0020267788982;1.3998618592601211;1.3123687697913335
134011687;137.2422212798059;170.26060028667931;151.49630746061354;1.4024396196474152;1.3153913194393403
134011718;160.58569336121531;142.01700975064875;151.60408241844334;1.4050934284790142;1.3555385167538128
134011765;161.01550996902049;142.39330279099912;152.6169169968228;1.4080885874912454;1.3581933424735158
134011796;160.99957866664587;142.84407267341788;156.02704522553631;1.4099616980170862;1.3649596320368322
134011828;117.34642902882341;168.93122772629087;159.41724574635919;1.4360092961275179;1.4156523723681955
134011859;116.28896303214117;168.24572855124211;160.70636277433752;1.4382556997056801;1.4180327157272525
134011890;114.62472747268991;167.83325989764614;160.57544248523058;1.4394393489643635;1.4215878190272195
134011921;114.5292561010571;168.13896968272556;154.97611777131559;1.4424437029013806;1.4260492656014228
134011953;136.62761183947347;173.6208706085099;154.35835676888715;1.4319504444132689;1.3631294612922607
134011984;136.72697161083949;173.36813936284742;154.98782284726238;1.4335407109642788;1.3669823725996066
134012031;102.93681106109226;169.32747218806253;158.075092974244;1.4649745334652451;1.4620035654032215
134012062;105.26382319260148;169.27759575715746;159.3900409433771;1.471539837668302;1.4672814240984309
134012093;105.72651751805859;170.03788898879608;160.61054886542129;1.4767091115834825;1.4720861527846481
134012125;106.28624550340557;170.72032030033532;161.71836068912461;1.479138870546715;1.4760186764837739
134012156;106.73265781474274;170.90445582007456;162.71817597962763;1.4801870431084883;1.4777425183507347
134012187;106.35060342840426;170.72894148351313;164.52208721471942;1.4853250808607683;1.4825325067909239
134012218;106.77348623337016;171.27007752304812;166.01766479516658;1.4889421877855853;1.4856772953341026
134012265;107.14575989439868;171.44061178841147;166.77144735688836;1.4927406245140138;1.490010956163454
134012296;107.51572134908184;171.1257273578658;167.94022904040597;1.4966508614689136;1.4934386477598287
134012328;107.99889976791991;170.70100825072947;171.32341844233807;1.5014261992090421;1.4969896177607422
134012359;108.17406487596425;170.94157411345069;172.08628252855485;1.5062583447206834;1.5034273860382394
134012390;108.4939838758701;170.9247609594222;173.00562137351494;1.5116056929884183;1.5097611160182
134012421;112.74157058050277;166.64026169921348;175.23800963583236;1.516109481298787;1.5176066422033456
134012453;112.41598710824955;166.72490927073295;175.24514200707949;1.5193959847687457;1.5223378376362353
134012484;110.84519887332374;168.78170485598292;175.35274626670571;1.5257005401325336;1.5298846858216735
134012515;111.74822676924514;166.50349452721702;175.17624401153361;1.52894999270184;1.5395512318032223
134012562;111.45845563111917;166.79456225519789;175.18282231464545;1.5339076565301912;1.545327631663534
134012593;113.11920908826467;161.66401805236725;173.16600759439231;1.5415459635060516;1.5615195682684633
134012625;140.11622088440362;176.85093610651572;160.83984171422455;1.5281079214062492;1.4763815276949761
134012656;140.36255886836437;176.49397011538071;160.19810577575055;1.5314795127273226;1.4797591171851596
134012687;103.20610470418593;173.20470356226034;171.91566720556739;1.5757703472524478;1.5922071456715896
134012718;103.54928324387562;173.44458326950078;171.86346108932062;1.5781035613566345;1.594984202117276
134012750;103.8351506955818;173.49352924187372;171.85330764725728;1.5797999185815752;1.5973143438550623
134012796;103.43502451953144;173.81808935432639;172.22597591210169;1.5825435432459529;1.6002838853013814
134012828;108.77049170927238;173.1739623383931;177.95615112273086;1.5787975793996489;1.5836767233324169
134012859;104.48063877298112;173.09557101334713;172.25382772655766;1.5874880516110428;1.6008606214575312
134012890;104.77118838245708;173.50839677805661;172.33371769706218;1.5879142491345466;1.6020177730250245
134012921;105.18720123177975;172.54763048502679;172.69089272039696;1.5885275822451972;1.604515544590666
134012953;105.62107080054422;171.788177715337;173.03103814867379;1.5892942228526392;1.6067078103936971
134012984;105.83982082358276;171.57424044244419;173.15436869468107;1.5899886111170021;1.6081109558486564
134013015;106.00114293790716;171.37433029114231;173.37374980256729;1.5905136200111449;1.6092972906481291
134013062;106.1149614829308;171.27840058437209;173.41893087421718;1.5912765479475028;1.610719060921862
134013093;106.13085936095983;171.81650687640524;173.32439626903835;1.5919215414797703;1.612364825301436
134013125;106.06094200189355;171.59203859921459;173.12471495519881;1.5924504945753253;1.613188071723813
134013156;106.24124543007989;171.99352168784941;173.22608862611816;1.5931698774565537;1.6139180977656722
134013187;106.27588632595774;171.73814028076924;172.92104585757113;1.5933220039589047;1.6145244130517973
134013218;106.5359706769945;171.33287464826526;172.77535805988256;1.5934428499449862;1.6145465558654126
134013250;106.5349705587246;171.6218480781117;172.61336304455938;1.5941631750849292;1.6152106848292815
134013296;106.61237898522124;171.02911950871516;172.29082590007482;1.5938541921041662;1.6153337166797863
134013328;105.2774481267689;171.39364792772585;170.62836761103623;1.5912826372879172;1.6155786915079613
134013359;105.54298770537093;171.15073390123013;171.34383997558356;1.5920797219670069;1.615574745450763
134013390;104.87316025606523;171.33219527745541;170.36780445553282;1.5905902889325814;1.6152616646869142
134013421;104.55544440337891;171.10468290593602;169.975817032776;1.5894107919653384;1.6147435471103762
134013453;104.36694652643421;171.36084757543597;169.75453772524395;1.5888117356933709;1.6142428045439017
134013484;104.0945850017865;170.65492649048133;169.34814361955304;1.5882444699794951;1.6131738346327522
134013531;103.98845670148984;171.17149869118316;169.21114849349209;1.587440774778196;1.6124312176716729
134013562;103.81628272406496;170.99852155981768;169.07047071842317;1.5868778851062475;1.6115369135320961
134013593;103.62956083180696;171.13763494495385;169.0223834641244;1.5862979405116566;1.6111111561587781
134013625;103.44772689107633;171.13422994718249;168.97425689819536;1.5857704745848105;1.6103523299441189
134013656;103.4105904208885;172.08332262193363;169.03315633262483;1.5853810263031054;1.6100163129528871
134013687;103.34188526224612;171.83805327424565;168.94869545228468;1.584516949110504;1.6095347618104317
134013718;103.35810643923797;172.03560092131076;168.82835638391697;1.5839473756820457;1.609159226552431
134013765;103.34782587479819;171.88175974175783;168.77514248058049;1.5834435731046537;1.6089146314495859
134013796;103.27258383913687;171.9216308795352;168.62803774217733;1.5828055873532081;1.6089300648456748
134013828;103.27082863389546;172.10257634827465;168.54680135337571;1.5826526585723983;1.6087556735716204
134013859;103.98090149910887;171.96527176722321;169.12992087477889;1.5818640346010717;1.6067118281574702
134013890;104.52993717625779;170.97729194820545;169.65151239370249;1.5810956480141618;1.6049481666424588
134013921;104.34836505836758;171.316903978195;169.44319185069443;1.5810235827889603;1.6055820557619169
134013953;104.25854038366408;170.9382663775275;169.1500569007265;1.5809188449606411;1.6061087043642459
134014031;103.873453142572;169.85553112730077;167.39343470837494;1.5808973179751604;1.6095618802184251
134014062;102.98579814945387;170.81093166168409;166.97048363747993;1.5807209975511745;1.6099216987071492
134014093;104.25515351277774;171.72918577925105;169.33819855441044;1.5841400655863644;1.6102640624748705
134014125;103.90656826075166;171.839955573402;169.29399736200352;1.5838139547829087;1.6105628809253552
134014156;104.09502942615661;172.22748529527104;169.9295574009268;1.5845023950163581;1.6100091780280679
134014187;104.33728847339179;172.32715354910476;169.78224984413149;1.5843247748592666;1.6096474414020727
134014218;104.10271919237982;171.21998499439479;168.01633855432712;1.5865077019238292;1.6153356174814535
134014265;142.24367125554372;117.52154319430308;166.32862915095836;1.5867490230488166;1.6519385932802131
134014281;139.73537511118818;119.45966142550687;164.360065788185;1.584629489252442;1.6504948709135445
134014328;137.77630061760311;119.49665081805929;162.05004486705747;1.5792958386744209;1.650050109358072
134014359;120.26162526831307;138.92466438271782;160.33108766173098;1.5756757889213384;1.6387907048861519
134014390;96.078419145825151;177.57583634467477;162.12324852375085;1.5788254501781871;1.6141722042931268
134014421;118.35524318357624;141.67938962942455;164.69152564282865;1.5824988730017193;1.6416717648456141
134014453;160.7309803183399;86.231305229670525;174.42863162753739;1.5731449556778567;1.6366816981801551
134014484;161.154120515409;84.835949873038047;174.00436709340033;1.5740233114069098;1.6363515016273729
134014515;160.84776288975743;85.503973692677448;173.89200566703298;1.5747963598995329;1.635586641141642
134014562;154.51794173884855;106.87968506038588;173.13517724339124;1.5761732035716611;1.6391142344700902
134014593;107.29571909708541;172.75122744915993;172.688523950074;1.5764614704368061;1.5916600020870619
134014625;107.55929173255645;169.30382052793905;172.51231768740715;1.5768560886501712;1.5943107300323274
134014656;107.52770420911975;168.06344838760353;171.98121250672082;1.5767693959195119;1.5947176456778667
134014687;105.06171699259453;168.97718428180696;167.13197481047919;1.5740766980232515;1.6044305702675539
134014718;104.59635609582249;169.13726585952676;167.48807743427136;1.5746023980294788;1.6036024475998647
134014765;109.34869386083904;166.83392472851074;171.86958175797435;1.5738018148110349;1.5828574282156429
134014796;109.15035036216069;166.81620382582582;171.93026213762127;1.5738699165570329;1.5820006712771335
134014859;108.71351403880334;167.06256489572064;171.94205579727691;1.5741242941945044;1.5817497031439571
134014890;109.43225425697098;166.61795289124362;171.70263055238064;1.5731693702260106;1.5784974121901561
134014921;109.71473840766439;167.44708336957032;171.5847791139291;1.5728539301417033;1.576450856310168
134014953;111.14710547438253;168.28426557476928;171.19132896923227;1.5748584143043367;1.5761993893057209
134014984;110.55117983691386;168.0778654681649;171.45720313801982;1.5748203870574347;1.5777622246411429
134015015;110.18271089495175;169.2742946136969;171.45280664947512;1.5748160372144857;1.5787303608317636
134015062;111.15134059164237;168.82092508578512;171.3172451433382;1.5742658918424541;1.575648292237
134015093;110.9275094110079;169.29608780047053;171.29458110662816;1.5745250707252139;1.5760606787803089
134015125;110.70393923021042;169.99845284103162;171.45580636166991;1.57491846282948;1.5766379588540422
134015156;109.61617233294464;169.81673362374292;171.69200536577515;1.5759224787765285;1.5806247274929872
134015187;109.39017725500354;169.06397371432459;171.74046307016758;1.5758304732194748;1.5813158176376532
134015218;109.28565067426817;169.71940562928268;171.73274302964026;1.575845626650956;1.5811152953142791
134015265;109.03372639166283;169.37718634883419;171.68965900245351;1.5757496982982302;1.5806634328661882
134015296;108.94906138931292;170.2469942438791;171.7815886187353;1.5757595904838913;1.5803538505943566
134015328;108.52862243680546;169.75608178879782;171.9928274757774;1.5760079837295584;1.5822939435434866
134015359;108.39451382156497;169.58968853641775;172.00739116179406;1.5758193517100116;1.5826376867364749
134015390;108.31233840596622;169.67799751012728;171.99127488021907;1.575700468038459;1.5820752564394784
134015421;108.2844624835827;170.18785250614329;171.9635485780266;1.5757166910151286;1.5818952112105271
134015453;108.47221771121535;170.14068761875183;172.2838713755234;1.5755405631162367;1.5813512208762302
134015484;108.3927923619716;169.19792376570797;172.11465864423408;1.5751360469012539;1.5815468134459219
134015531;108.31726972961447;169.59597646205572;171.81720308736527;1.5748924341669317;1.5814976794084643
134015562;108.54921186255076;169.96728695794704;172.18315466168784;1.5747986309527629;1.580417849844096
134015593;108.64138225053466;169.63114333415621;172.47997638535063;1.5745834137915442;1.5792259228421834
134015625;108.50925839121658;169.79734178401589;172.28611018054056;1.5745198887397;1.5795603407837171
134015656;108.36078688420484;168.96302099608741;171.72526569921965;1.5742915989202546;1.5795901407495692
134015687;108.7043185522549;169.17343807207027;172.27066865908356;1.5740542758680927;1.5787694873130638
134015718;108.92934718609202;169.62682267035657;172.6026708331444;1.5739955866071917;1.5783103171948441
134015750;109.14286072677729;168.68598490455432;172.93577475870168;1.5735308831711303;1.577036162211813
134015796;108.7843938910448;169.36111807043685;172.36099253111158;1.5734678687888428;1.5778001052304085
134015828;108.17709765849008;168.98373516437528;171.95972154574628;1.5735366355013947;1.5798371281535855
134015859;109.81523852407389;167.94460633523093;171.91622038916736;1.5718080681944173;1.57481432965616
134015890;109.63771313022745;168.87788248312356;171.89005020521114;1.5720083925826942;1.5750053797047461
134015921;108.9062938278019;168.96257885657693;171.98593909473678;1.5723124674992905;1.5768775035282836
134015953;108.79057048848382;169.73927281237786;172.03872130105273;1.572463239620542;1.5770601086993854
134015984;108.35994823500403;170.08018483919443;172.001533208754;1.572787939527909;1.5788188588519532
134016031;107.76198057912883;170.12633110699468;171.8072249530687;1.5733811054589126;1.5809344825689036
134016062;109.69546134555318;169.80743189793273;171.58047470831835;1.5747939124960866;1.5797238171319015
134016093;110.2370783795548;170.53843574254051;171.55038688018004;1.5758099947394892;1.57985675649367
134016125;108.9977040748323;170.17058031525158;171.43156007937668;1.5755097631631725;1.5817138335459531
134016156;108.2718596082288;169.95184309596013;171.29779720908073;1.5755099808328292;1.5830391706496376
134016187;107.96898613486209;169.86337635712232;171.11206088141844;1.5751658117388927;1.5832742235773198
134016218;107.62865383519426;169.77567008672384;170.999175336829;1.5752296103979517;1.583839260150387
134016250;107.40501198091354;169.62990797142172;170.7007469151535;1.5751781609302227;1.5842881217250653
134016296;107.56665284983086;169.79425536254391;170.97941457381262;1.5750395968559545;1.58344268158056
134016328;107.85581169453545;169.67530302039316;171.16952204139463;1.5746989898180253;1.5822677117196302
134016359;107.91299399382407;169.95686274611833;171.57358082729911;1.5744048653543035;1.5815089106125972
134016390;107.74818081981263;169.73610140727635;171.16536567088727;1.5739464038772304;1.5815467745623775
134016421;107.26490457773747;169.4929373361536;170.66764968197015;1.5734585845858511;1.5825792407613906
134016453;107.55582398149792;171.31242049813514;170.90984544953628;1.5728859959469053;1.5800974669516743
134016484;108.34505620566578;172.880962147936;170.84362957486979;1.571408083391526;1.5770518638364861
134016515;110.09431803440062;173.68441821682208;170.40692509468556;1.5687557649772796;1.5725603709702685
134016562;112.70910786382081;173.0745398160868;169.69985580638419;1.5659175387998028;1.5683612948785286
134016593;118.22292367501728;172.49047878034349;169.21452673979312;1.5623814837443897;1.5594438403505928
134016625;145.08199933436626;152.05707987978838;160.5048717302644;1.5441844434750784;1.5185349661797873
134016656;147.51092820068732;155.08148645117731;159.38588427429306;1.5408261726507901;1.5110551960591221
134016687;156.94718571395137;155.48461480949021;154.97132380734294;1.5278947119874624;1.4790851138677879
134016718;162.92423904773966;158.90201339152722;150.67631650544882;1.518257979388999;1.4465263810129607
134016750;166.053523937242;169.59608934643057;146.76047047234124;1.5083324701082808;1.425419513454945
134016796;171.2074891556174;169.68092482812824;144.31777461330327;1.4973713297189555;1.4115405695085792
134016828;172.71373105792546;170.78488933920841;142.96199411314035;1.4913757603596887;1.4022573033758721
134016859;173.63433133278005;170.67522643444281;142.38339759719133;1.488305979849359;1.3971641175592775
134016890;173.97195491209087;170.90396523335238;141.84382163398507;1.4855215972585936;1.3931387547808221
134016921;171.73465263947838;170.97576116795483;145.665355590656;1.4764397577622093;1.3913132048602925
134016953;171.33288070736793;171.50133166099872;146.52643056352892;1.4739971720064766;1.3887138894050568
134016984;171.15290576835378;171.87124026278872;146.73134955822084;1.4717473076844756;1.3870334852273067
134017015;171.27966332240729;171.7725852018261;147.24698407739675;1.4701635617066631;1.3858500647874699
134017062;171.41502106151143;171.38549853979581;147.44007382608734;1.4691517862252241;1.384978621792506
134017093;168.35020110035254;177.01244195284892;147.39101233960858;1.4686065610833847;1.3852701616645651
134017125;170.30601538090895;172.08677579417426;147.84374421424877;1.4686535633930746;1.3848752603006798
134017156;170.40161501759135;171.71606909632746;147.76449440530371;1.4684347196489467;1.3847813755005947
134017187;171.32242593277263;159.33838563166728;145.18690610551425;1.4695126098112117;1.3780458466267884
134017218;168.49548203801834;174.46665016773332;147.19267312722397;1.4678207529189162;1.3854939208456794
134017250;168.49461414460828;174.42174211310649;147.02750759173443;1.4678053385298726;1.3855785102001248
134017296;170.62080263433646;172.20320675249474;146.58586641351286;1.4677638933183774;1.3866227053995344
134017328;171.74660226803709;172.26388933363785;143.87249300632882;1.4708814964803998;1.3850556489126971
134017359;170.30918662558293;174.92093454972456;142.89430172349725;1.4721086729562138;1.383696217371319
134017421;169.90989560395877;174.18818882173531;143.25533788276104;1.4712130597319943;1.3844900568318892
134017453;171.39286112596625;173.13332721618392;142.30431421060294;1.4728383321464829;1.3850584935219039
134017484;170.5055667591437;174.26067264016683;141.94769844356225;1.4736846360328781;1.3853217275464307
134017531;170.71114481312407;177.12009742535565;141.82502966802213;1.4746029798009703;1.3851693537977943
134017562;170.8265920104989;177.31595556469475;141.61980485869714;1.4751621644230797;1.3850531303700913
134017593;171.68388160626552;172.82708114221165;141.57036286024351;1.4754027565175185;1.3858304221114701
134017625;174.65200382477065;175.3006963518927;139.2822287526794;1.4792684492592856;1.3818527120551627
134017656;171.73384802712698;172.31317051522993;141.38898990545405;1.476116534042323;1.3862154510237945
134017687;172.42485790419212;170.51157025945068;141.39702239093487;1.4764634564408474;1.3827558865097764
134017718;170.79714505158722;176.59422383487137;141.48686998470453;1.4771316004172039;1.3876283720956664
134017750;171.88890352180019;169.20350549015407;141.64840620670057;1.4774401303463476;1.3840542166780596
134017796;171.85587573023258;169.92386187926925;141.77302651241806;1.4779993139853167;1.3843799445975529
134017828;170.83928323091541;176.13851337846174;141.83452329680003;1.478259252795145;1.3884244570763689
134017859;170.84256791941647;173.20364467116832;141.92898119496013;1.4785882762307472;1.388669942659799
134017890;171.33339257285795;172.16920651924264;142.03738312801266;1.4788787464659867;1.3903418299894097
134017921;171.10705605086412;172.55474861273632;142.12636441032484;1.4791487682493527;1.3906158891336511
134017953;170.62384625171072;177.65817154231274;142.40506581607886;1.4795403661574174;1.3909916377420446
134017984;169.96745658709722;177.70458173582796;143.63831165444779;1.478828020276399;1.3927442910886962
134018031;170.96087538675184;172.20735284697682;144.06174980624471;1.4789003687363616;1.3940537085792022
134018062;170.0307161933911;173.71352424839552;144.32211624009344;1.4790058538695068;1.3946956356257803
134018093;170.56000099745751;172.72485545404476;144.59981023981499;1.4790696118291209;1.3947150879483288
134018125;169.90482398384069;178.20529019233129;144.86129193142051;1.4795368865890559;1.3946294226852543
134018156;169.68937796647239;178.23281387700303;145.06321171412967;1.4796513273375349;1.3951450033255148
134018187;170.56079304526702;172.33825173198946;145.30619189055039;1.47957910691435;1.395525014930576
134018218;170.44193230937705;172.50978753670765;145.62894099705213;1.4794328549524882;1.395897974911265
134018250;169.36888186657183;177.66679554047335;145.71777772726165;1.4795298259826084;1.395365632938151
134018281;169.07165007771249;178.79326058897587;145.79251977147183;1.4795046115283554;1.3958082921731088
134018328;173.47865673902183;175.09199673296106;142.46633067701322;1.4792948293243837;1.3836245710998412
134018359;174.24771207761231;175.66240723521449;142.4641845082368;1.479458763198874;1.3850147053243695
134018390;173.58283581806688;175.07694550078779;142.47982220401863;1.4795554228161978;1.3842071372636815
134018421;173.3517624110504;165.89074935680193;142.54120353524107;1.4795718585048092;1.3848737198375238
134018453;174.10232987350662;167.4655106148291;142.60405587083091;1.4795807371297578;1.3859144455122456
134018484;169.30885584235236;172.869604959483;145.97309862990105;1.4791404842813634;1.3986826729190012
134018515;169.30345741374191;172.12300637458876;146.09055340047169;1.4792484541280238;1.4004972677071952
134018562;167.4466657056166;174.96140977096096;146.28301735198758;1.4794183325521448;1.4038376812635605
134018593;166.71241834277706;174.80520826965821;146.5109208022491;1.4798532853405211;1.4058982546624412
134018625;166.26353541091956;174.24260409401728;146.76127822257075;1.4804182515354343;1.4079450623906862
134018656;165.6572911974659;173.65732803486384;147.39035262063777;1.4823425912607646;1.4114412276958253
134018687;165.30931869905862;173.23524249639047;147.76015638285409;1.4834993635907714;1.4139169478363907
134018718;164.962140193839;172.67535318376085;148.23205645596104;1.4851606584372477;1.4176915468226921
134018750;164.92003884951271;173.87867148656972;148.55114410924298;1.4864459676751496;1.423571494175881
134018796;164.57572930676074;174.00308971769422;148.89792849285561;1.4881164270766534;1.4277413349700461
134018828;165.55935025801676;173.18876214831477;149.44506439969118;1.4900230287814686;1.4345010184408147
134018859;172.9994711084268;160.41961574777665;150.69436882167179;1.4906265972205843;1.4355819380377497
134018890;172.40446758234532;157.18913983980508;151.19849012874573;1.4927957213778369;1.4367840164889971
134018921;171.85700161349087;160.8454081130227;151.29379341028084;1.4943066874043369;1.437676108353616
134018953;163.73547344900439;178.99860102681174;152.21206623315737;1.4966881288326386;1.4505404963072821
134018984;171.50473531497386;160.61578503315343;152.97045804492291;1.4980795219947376;1.4425803216603161
134019015;170.42125751232575;162.15407554834127;153.13774459086329;1.4993894154837211;1.4443840872675891
134019062;168.98999116768812;164.00749263511176;154.17639775045385;1.5009363280688441;1.4474893412997902
134019093;171.88464736728503;171.26029829310548;149.315169822305;1.497045012779324;1.4253566651449177
134019125;171.36273891500247;173.04254823289179;149.21599958934468;1.497204578141321;1.4263367832064113
134019156;170.12393774576461;172.19380550881692;149.456159466415;1.4974220020358782;1.4281991803920384
134019187;170.31653346140388;179.11964206299049;149.73918709258194;1.4979750091237618;1.430249297674224
134019218;168.35482815561437;179.41174794432058;150.37781457578885;1.4987769327287603;1.4337276232095904
134019250;166.33753864399469;177.6183214415899;151.00640784185089;1.4998337675316293;1.436660244846157
134019296;159.33015756519151;170.98827193957553;151.71745628364656;1.500889646800107;1.4384556687075003
134019328;157.58815277736494;174.46339510858203;152.38784243086462;1.5023557269313956;1.4417744190063289
134019359;156.28945143506326;174.76067698868613;153.07378130236629;1.503559487587079;1.4445267917665317
134019390;155.03200060126568;174.47973060441888;153.78951859027677;1.5054178985324667;1.4465309603935659
134019421;125.04511420102962;167.72893641969611;170.13319871028361;1.5339141126443929;1.541603341668478
134019453;125.86677459054558;166.64476118755121;171.05960176124552;1.53432897810628;1.5405886920670797
134019484;124.76512748653965;167.23905447159879;171.64667262020967;1.5346872468453776;1.5394867973024564
134019515;124.13154596815015;167.08500313075103;171.89620920216896;1.5349635523110992;1.5385387715912178
134019562;123.41852121487209;167.11842176720529;172.30973300301463;1.5352613792853136;1.5381446994839461
134019593;123.65368418994321;167.0227200054978;174.00618297256457;1.537506156213877;1.5390882743655263
134019625;122.95391325530535;166.70525890413319;174.3602345685056;1.5372414008330118;1.5389545755059708
134019656;118.79328380931635;168.85632898265729;170.42607022887276;1.5400197777531468;1.5443133547564316
134019687;117.24582902932917;169.15834417730989;169.63516486445093;1.5394640902926053;1.5451504322667187
134019718;115.46207385775709;169.03910292735486;169.05899434538054;1.5390263056468174;1.546276328501951
134019750;114.08223893771994;168.47242157173608;168.31316883493929;1.5380381848486384;1.546199167816622
134019828;112.02737233975687;168.90304434982653;168.24158538364762;1.5374753560711161;1.5430486157337944
134019859;110.73824718834484;169.7269494566155;168.03488291699279;1.5367418585822317;1.54195404331427
134019890;97.479044012415216;172.47358365457018;161.83991127491385;1.5465610713620475;1.5805615027947584
134019921;97.401808985125157;172.04355422021649;162.22403544500338;1.5460185331705718;1.5776617848326822
134019953;96.937102145194373;171.17085491129595;161.51285253140483;1.5441683421492594;1.577115481308355
134019984;110.68511725492282;164.79881661257383;165.17428584357182;1.5249070468155761;1.5284959692967264
134020031;108.52210950440413;163.83914825481296;165.31888031281838;1.5275274876106502;1.5289761780143771
134020062;95.387994963010655;168.4584328972995;161.76099532078564;1.5425091930087693;1.5683537572788697
134020093;109.23947044582062;158.58335043063363;164.82924147110379;1.5229043521035532;1.5161690023899126
134020125;91.04081431568892;166.47861014144496;158.8072528587895;1.5447742346797275;1.5743571464467145
134020156;103.92341796899389;156.05023070583911;164.03718209761038;1.5260832514006097;1.5222442668802318
134020187;103.19407339428008;154.06871114654493;164.07987807137266;1.5262593041422432;1.5180911149851424
134020218;100.92307716501055;152.90273657546752;163.89100834244866;1.5287843028634542;1.5171138109604236
134020250;99.481371413314193;151.9363803444264;163.52708845146776;1.5285614663584397;1.5146176338218287
134020296;98.167038244187069;150.3652584445756;163.16817040954743;1.528336079825483;1.5140955510923868
134020328;96.957931872109384;152.3995456879216;162.91093406699349;1.5284023140119669;1.5141432699546058
134020359;96.192414339981468;151.94612595565519;162.66444800024354;1.5283294783231398;1.5146437065677594
134020390;95.760476412924774;151.06121686000898;162.60354949883811;1.528084221176184;1.5143288260494765
134020421;95.455684745397008;151.32648072741071;162.54262287934202;1.5278992519827475;1.5146613798852406
134020453;95.045783542752872;150.5318466810057;162.5119257352425;1.5277717835895071;1.5153971722111699
134020484;94.582643199893255;151.6224378160222;162.47084967980203;1.5278492605694387;1.5164364460866233
134020515;94.134464037871368;150.25492457113069;162.40322730537883;1.5278341916323073;1.5172156358997628
134020562;93.083310455701863;151.71295001083433;162.26868000885898;1.5285688978667078;1.5193578328322188
134020593;92.4261900776742;150.84206454745637;162.16961838353413;1.5284986432899423;1.5194676937848601
134020625;91.6695745938298;150.02322807836723;162.02273461390678;1.5276948873215788;1.5173331444461673
134020656;90.650545973871886;150.73157130677726;161.35083319479989;1.5251540262933134;1.5127091071340735
134020687;90.15377294624102;150.95327490705213;160.72844514105805;1.5228955065365066;1.5031024764258931
134020718;91.083395302843414;150.50972575737288;159.62055525956993;1.5151344478011515;1.4764780382635696
134020750;92.374006745716287;148.97967932773506;158.00053041476582;1.5068992827851171;1.4607382007089513
134020781;91.986550573229138;151.40939003808;156.67972947639657;1.5011299503976583;1.446447256681519
134020828;89.761915396866428;165.06722779588367;153.67371351750987;1.4876900750121023;1.4223573971716856
134020859;90.6735039492044;161.24445946169462;152.8390709218493;1.4845155746129077;1.4170195246278892
134020890;91.992413846134454;160.24951807441966;149.58145362272896;1.4724861012750503;1.401227561308577
134020921;93.9084303672841;161.94013856412326;146.8172026012507;1.46032931258006;1.3808352891203706
134020953;95.270828648468267;164.70058353214711;144.4404087332741;1.4510152491192729;1.3634782105639478
134020984;97.514200862351544;164.55594176202905;142.25422556888572;1.4422854830303731;1.3495593603268483
134021015;98.530858370532584;168.31669944758693;141.21511514241342;1.4361857294952636;1.3368919957574963
134021062;100.22405203225766;169.49520769609003;140.3270814731826;1.4308787305805317;1.3275331315691565
134021093;103.73321568451611;170.54051108819439;138.67087075257749;1.4227140133577902;1.3110631286559367
134021125;106.68295045586147;171.53168397763707;137.06419099845269;1.4164153329860163;1.2989685369866568
134021156;109.69605737085139;171.79440593917008;135.68219192239681;1.410855857162979;1.287347402756915
134021187;112.53052217584838;172.56268338446853;134.283853518774;1.405410026615215;1.2770717182893163
134021218;115.30461379246513;172.84084084889571;133.75901356412589;1.4007703234387234;1.2669559071694421
134021250;117.23788367157925;173.88256583988536;132.89583168563109;1.3974530726690944;1.2604319244872928
134021296;119.69131429551813;174.94955684476878;131.76801765004495;1.3932075924692398;1.2526362521975927
134021328;122.37536271868291;175.420271484611;131.0973025783714;1.3884855326414189;1.2444799414345071
134021359;123.43688246917283;176.54182086746988;131.77513181858785;1.3881512418644493;1.2408417518478692
134021390;126.90980579744932;177.02536788536204;130.68053240956235;1.382797524981852;1.230209002160791
134021421;130.711395303742;175.42443607466908;130.03256297759947;1.3790656769165586;1.2222441194616549
134021453;133.36547591518138;176.16462466367133;129.05280576039385;1.3745727256188072;1.2147385033686688
134021484;135.0417612412237;177.00252103339955;128.75779617243305;1.3720645897624253;1.2100053526771428
134021515;158.18097867451297;172.23218152131133;115.62499156782695;1.3350835028948147;1.1538915189277357
134021562;158.26155287571478;173.2694257370988;115.74659576454515;1.3349507894699864;1.1538288966035417
134021593;158.35917187559264;173.33152776465897;115.93376650478017;1.334721273019855;1.1537882812093234
134021625;158.12870660388552;172.57381266863195;116.17798954512639;1.3347244907961036;1.1541874513418509
134021656;157.98155832331457;171.69553981534659;116.46196685961337;1.3351230094018889;1.1550380587875577
134021687;157.52006920832559;171.13441760233178;116.82179532695072;1.335731868917641;1.1562201424398726
134021718;156.89255547394058;171.00771136674956;117.27413077726847;1.3365897301671283;1.1577195179012882
134021750;156.3208279404881;171.17764510793083;117.67463713766145;1.3374241613635727;1.159007999085945
134021828;156.00109627567807;172.3093366342622;118.00483970941568;1.3380839840536631;1.1600262055285155
134021859;155.52077765586495;173.51467799663408;118.47865716309535;1.3391870042136347;1.1617184290082112
134021890;155.55850852658281;174.1443693996427;118.71606804019915;1.3396558493157098;1.1625170003433891
134021921;155.42945660003443;174.50840387441645;119.10930817299526;1.3406756841658674;1.1641579831402464
134021953;155.399558460598;174.40583948601199;119.58282078936247;1.3418316823227148;1.1659434222243115
134021984;155.810160972894;174.02392304409614;119.57596158181177;1.3425842751909878;1.1674602060082846
134022031;156.05423628854823;173.92560960857114;119.72912779834191;1.3436238053564975;1.1690132585049955
134022062;156.29188571851955;174.29987558484612;120.00707192296815;1.3441227196026995;1.1700848481064348
134022093;156.56957097687845;174.37462754582722;120.24811857534817;1.3445573856817772;1.1711973791410537
134022125;156.65267248236197;174.656634554849;120.51320214684176;1.3450792171233665;1.1720349286844474
134022156;156.78453464375227;174.557646728035;120.87386075305437;1.3459606331171117;1.173563244163488
134022187;156.77821596714651;174.41459214369496;121.25351997286538;1.3468176427484144;1.1748928895434587
134022218;157.14332642118677;173.52532391821049;121.43395639709169;1.3471828894860782;1.1761263412477263
134022250;157.10815524346793;173.09369432619153;121.79197377162782;1.3480945523420536;1.1778427326499192
134022296;156.88662218436789;172.51001868521951;122.26364465064211;1.3493214976524137;1.1795458202470017
134022328;156.22446773235473;171.58740767412911;123.33585325293613;1.3514990038882169;1.1828141486804256
134022359;155.73488448359444;170.18700279388108;124.257409019602;1.353550799499714;1.18643774111849
134022390;154.77655204836617;169.59458045559674;124.99765535934264;1.3569336734418642;1.191178532575355
134022421;154.61049763087974;168.17613407172786;125.64344087755731;1.3599449092124425;1.1976472919309642
134022453;156.2588053025404;162.97528160986565;126.60127747603337;1.3634315738459504;1.2084117839009416
134022484;155.21556489459027;161.75538254620088;127.85137507757742;1.3681650840813202;1.2148332118081118
134022515;154.24762799616715;163.31309939041233;128.76913803414197;1.3716411980940564;1.2228880805867932
134022562;153.29662869642013;163.28106407325808;130.49306661640907;1.3770261751680366;1.2326978244924158
134022593;153.26321385607071;162.45507298058411;131.79680022645673;1.381334525276452;1.2426556422580017
134022656;146.76145988735155;168.43068972796036;138.1611539895263;1.4039481832266656;1.2819554852380604
134022687;127.0284470970567;168.0024562049596;149.72382213523824;1.4425631992150718;1.3536688621063286
134022718;126.74990319917875;168.58120087884996;150.48427698355275;1.4446541333916776;1.371076658495421
134022750;125.70156119300265;168.76748297064592;151.4222406732757;1.449198791242434;1.3879336007278524
134022796;123.83612402856224;171.12971778898714;153.57615599424989;1.4585097517344754;1.4126902092367921
134022828;122.54745103597767;169.33713451244853;155.90088667920472;1.4677389810289;1.426526257308576
134022859;120.40981838500612;173.12212018196476;157.67368109107073;1.4750318851267008;1.4496026120354661
134022890;127.69710683910121;157.89691494243346;159.84273053016275;1.4829606069657713;1.4745578103227015
134022921;121.09707753813879;169.9324375180241;161.38436490448621;1.4901229052920921;1.4892175776140471
134022953;121.50834646633412;166.45210005692337;163.75992734810998;1.4971637147870809;1.4937379112719837
134022984;121.66095520617276;166.87182434392787;165.39756103387637;1.5018197719463777;1.5081702576470297
134023031;129.50696363007003;154.00979404141461;166.372898105485;1.5075432300045464;1.5324153519794588
134023062;129.42845369036036;153.45100026268102;167.87726780844741;1.51309326410316;1.5394887404398656
134023093;121.21892785343464;169.58070538595433;168.49285919534773;1.5178826537774355;1.5515026927334612
134023125;129.83741684094915;157.16128999753821;169.75692553796554;1.5203650392736336;1.5595135746450615
134023156;130.50275987129442;155.87537391979402;170.8049384182296;1.5234913567523494;1.5613209315070415
134023187;130.33023845720027;155.36657969917749;170.75278233179608;1.5267421069133782;1.5628471639370085
134023218;130.18683243280094;155.98067651461508;171.16818712070852;1.528418466654192;1.565849926966528
134023250;130.16952349737451;156.06760100515538;170.98253178208236;1.5300283032572097;1.5676354637926395
134023296;130.12733026842869;156.47231321098988;170.88280152365545;1.5314948304936431;1.5691460972875282
134023328;130.05582559447871;157.0661859273585;170.79317498551967;1.532529541674897;1.5700921797757921
134023359;130.02371639349784;157.5955550476269;171.33450104212199;1.5328650742946561;1.5712550524068676
134023390;129.91575856673285;157.66595865818684;171.15741350923963;1.5332926664690043;1.5714444785011028
134023421;129.95102661243993;158.3915884031556;171.21393357444399;1.5335068898391417;1.5715800822060226
134023453;129.96355310986829;159.76298568619154;171.20941700006202;1.5335203516165821;1.5714784790282868
134023484;124.06868205331466;171.74629451818575;170.79248650682877;1.5337609581459477;1.5687582943086249
134023531;129.98216040308463;158.66605833867919;170.83086381877644;1.5337235279171586;1.5696178537417529
134023562;129.81066582271922;158.5780896708315;170.64547846603861;1.5338246490198295;1.5695156642384209
134023593;129.74022799588821;157.22492590767942;170.70209988186326;1.5336389136229425;1.56925544903322
134023625;147.39600572255378;177.5388596210081;159.79807313235759;1.5225225284933863;1.5016189524702168
134023656;147.38388413480615;177.48486366957582;159.83756210136758;1.5223746597905552;1.5016762202461855
134023687;129.56327950958669;155.85727431416848;171.27500750168898;1.53349029029296;1.5687294067195925
134023718;129.57907290040589;156.09711342955794;171.7618361882945;1.5333370976655898;1.569046386960578
134023765;129.30843747972349;155.71855138659805;171.3581277084381;1.533341168138683;1.5692138428946498
134023796;129.30016910129996;155.83188758901372;171.37598696848855;1.5333106834961405;1.5691404045769648
134023828;122.85573585545372;168.36635726133022;171.85283806022761;1.533211716331071;1.5654182441368245
134023859;129.553542391192;158.53590229644698;172.24772452126297;1.5333098005823549;1.5691104354607628
134023890;129.51298006326269;158.48260316342137;172.20256005521247;1.533163881677879;1.5680324430443187
134023921;129.501006176333;157.12594440618167;172.60448843007234;1.5330312729865336;1.5669677626796368
134023953;124.48368895749827;166.57863144910877;172.51867676031091;1.5328274473195027;1.5591564279840464
134023984;124.3461373403172;167.52933511726059;172.42141453169478;1.5326522277653316;1.5593598650318361
134024031;124.01006126665723;169.0732097681846;172.34603737031259;1.5324583809262293;1.5593351064690855
134024062;123.89708636180068;166.79420055680842;172.10086216770253;1.5317202778053862;1.5584213937674676
134024093;123.08025894751862;167.87565484943551;171.24710964748957;1.531495788241374;1.5570588048434757
134024125;123.168763233515;168.02008222970065;171.01160032153982;1.5306203407185748;1.553140759576372
134024156;123.03501995421502;171.13918701059376;170.67702456795479;1.5296291333682448;1.5497742017054537
134024187;123.15491341820987;170.65895690929307;170.0675995716278;1.5274084583964898;1.545563851357413
134024218;122.87397179277518;170.04381963031122;169.11781757257353;1.525202101904138;1.5401271811872694
134024250;121.98336460695049;172.89130066711954;168.19472226254203;1.5220267249248538;1.5351448406577877
134024296;121.96464728308581;171.87742293711372;167.50392274081921;1.5201958237878457;1.53201019442255
134024328;122.79299222309778;171.38811338020722;165.51565284092274;1.5131302118341823;1.5216543169775434
134024359;120.61956124340755;172.01864500546549;167.59068133094178;1.5130758597438658;1.5191455434629966
134024390;120.0466987786463;172.13681401718986;167.63723601956673;1.5110367212286617;1.512253639583123
134024421;122.24386729478276;171.35243382914459;165.59967430904473;1.5024337721683323;1.4974453035793331
134024453;122.15540737414749;171.3413494430142;164.28439949402537;1.4979048645271298;1.4896164482407648
134024484;123.28908950354759;164.44025282802903;164.06285814157698;1.495809983598662;1.4769504333021017
134024515;120.32928890894289;169.00981957524641;163.54495946172762;1.4934866678892265;1.4754888089941638
134024562;121.97150584243175;165.98392330531851;162.6725467336309;1.4881826330412664;1.4682799835665419
134024593;121.497108196306;169.1530078482121;160.5977493550904;1.4820961870041867;1.4568517671299921
134024625;120.66092436716832;170.11930391702995;161.73564270518426;1.4763877298027959;1.4509197857524951
134024656;119.57841028683302;170.71508262806947;162.92151575659105;1.4704074184486993;1.4418367269856633
134024687;119.39544247133388;171.24988347992218;161.62474642486549;1.465300049435013;1.430700901316309
134024718;116.91185021276425;171.1790737260601;163.09585020751928;1.4606417031414978;1.4236042835476868
134024750;115.17447826506884;171.49326589740105;162.70323912582069;1.4555869498728111;1.4076306131470888
134024796;115.56061513804448;171.38421990609527;158.48540940329593;1.4482495430723001;1.3875214250892773
134024828;113.1390535279068;170.32675565367484;160.02885339932053;1.439666093887322;1.3604123237147754
134024859;113.13125314004483;168.86103156606026;158.6562648629079;1.4235352074145893;1.3286970930083319
134024890;110.1988591429341;169.39522220071422;154.37888141806721;1.4172920517072067;1.3185083453697413
134024921;110.66987066729823;168.47910483293782;153.43922951981998;1.4061939111064012;1.2960103378868315
134024953;106.95530344247747;177.56263230032377;151.25069593153808;1.3939043689230166;1.2784633957365994
134024984;117.36878393322843;176.04970036976039;141.80559165893882;1.3381783527565077;1.2293567233529383
134025015;123.21793924030615;170.95850442920525;141.79716055203505;1.3597883546988614;1.2441105440375964
134025062;147.71478228171554;173.37381736233965;123.15410249309146;1.2911476089060319;1.163939434675898
134025093;149.7994973452372;177.03810104791873;119.60767258488545;1.2801128852612804;1.1549338682604045
134025125;150.19206311803779;176.22726280895918;118.23563481506947;1.2679587417313247;1.14341692158706
134025156;150.6312431815916;176.12456362775319;115.67599261192238;1.2596386917497093;1.1373878704136298
134025187;151.96756812270584;175.79348841025515;113.84547036023584;1.2515753759802073;1.1299035335128036
134025218;152.69556044968209;175.84901813682546;112.81640217706494;1.245055084796532;1.1223904552723947
134025250;153.33725827263515;175.44950134871885;111.14157162303414;1.2407418422130341;1.1160440111634886
134025296;151.95879185298892;173.49615180891365;112.11247643598948;1.2313871261798097;1.1074277351738961
134025328;154.61875962731523;176.55940890036035;109.90366965011404;1.2218816819516993;1.0965727302834349
134025359;153.1404475909855;177.28296156597469;111.331729866081;1.2163284375072938;1.094878253102348
134025390;151.79362429564736;176.20682526977592;113.06759830366677;1.210003461487233;1.0833102292185732
134025421;151.60593907657005;176.88970890445808;114.028753720152;1.2047405845626897;1.0799821860587811
134025453;152.20581969966227;177.81801511177397;115.94200452947106;1.19902750177672;1.0732902704721676
134025484;154.0248020464993;176.6899156378847;114.685817602048;1.1980283709257027;1.0690819283570774
134025531;153.72720715371048;176.36983345637628;118.47850202251023;1.1911035520107363;1.0613507501136092
134025562;154.46154161036489;176.19519230916288;122.49403776075486;1.1828301774390178;1.0515199665601833
134025593;155.25250375731017;176.0866177706603;124.73776748673038;1.1756223043751666;1.0435983608276733
134025625;155.99023437868354;175.83505255581929;125.6654844785371;1.1707972223028584;1.0377034988783609
134025656;157.83439219467667;176.14424821375766;123.46244249080493;1.1709915309558732;1.038531935417268
134025687;156.84552909955011;175.84932990664356;129.13802317067541;1.1599924488818918;1.0297911605709129
134025718;157.67090886070346;175.11358437333396;130.86067180829153;1.1519782406724595;1.0217883650935449
134025765;157.70627786959463;175.46823136299523;133.22176184108037;1.1440640610921282;1.0141089884504178
134025796;157.66346157236677;175.91120642863928;134.15132832125786;1.1386956330513991;1.0098111840882253
134025828;157.8986600518206;175.8802626479318;134.83517820257;1.1348019536725693;1.0056957080093389
134025859;157.65166838474087;173.50682305268828;136.21031785448759;1.1304586711059368;0.9980042851380031
134025890;158.82860047002458;174.16038194202233;138.01029247224042;1.1205779887741107;0.98140675067513106
134025921;162.33507791286363;175.53269540005115;138.19856705823557;1.1129294841808644;0.975748841884213
134025953;163.01731147249419;176.17938475264373;138.58803940350356;1.1055970619988991;0.96918844390857506
134025984;163.27150389937594;176.20629094587662;138.92099371537381;1.1007143802084447;0.96419913325910966
134026015;163.39037335636735;175.88179932784317;138.99498427545879;1.0952497552180527;0.95876690919034158
134026062;163.87424088801922;175.38990932590386;138.64198035296252;1.090886514571999;0.9543395729033
134026093;164.03590275956486;175.1247952768741;139.34089920546177;1.0844913626407606;0.9480192036232975
134026125;164.60562531429468;174.9675255343758;138.14315396526459;1.0828669343849584;0.94503518579620982
134026156;165.00124353298122;154.98876761724432;136.90289940856593;1.0820218363106025;0.94320591061557379
134026187;136.8738655983357;177.21271987705168;159.2765607203979;1.1075046057034552;0.9819963492950603
134026218;139.81634728991986;177.12738468974774;156.4527272382461;1.1031602693949396;0.97593838805391675
134026250;149.01188381787486;176.09944317738004;149.53414861910764;1.097330024307438;0.97221892845338309
134026281;148.51955565486028;174.23747608937694;149.45102493670396;1.0966700972982575;0.97085682317989264
134026328;147.31885092216055;174.33181231839043;149.55838951445168;1.0942993123581648;0.96497356828736358
134026359;154.80945874290325;174.01827747743508;144.42070115008454;1.0932441882231851;0.96802759052779608
134026390;154.37217468555829;174.51603654104369;144.56564122584589;1.092996510641161;0.96727189270511849
134026421;153.72296151657073;174.42961252666004;144.82382821704826;1.0930317950746866;0.96704011788107613
134026453;154.00423428156424;174.63873665073137;144.4799203952258;1.0932940416043995;0.9678524962619296
134026484;154.18423906845388;174.84318836582855;144.28355808632784;1.0934863009562335;0.96835125777015707
134026515;154.00243661634704;175.34008659732498;144.36813492838266;1.0937606032020271;0.96892634131418975
134026562;152.27171065041469;176.18530015331351;145.3910605013499;1.0929135649485398;0.96605403522296251
134026625;154.63708234486833;173.64031846402128;144.88202486569165;1.0930033426733619;0.967049241419095
134026656;156.30746743614841;171.24144924865217;144.70007396056454;1.0931928717538408;1.0051291846674428
134026687;155.06131621164795;170.42665302620048;145.40890343064908;1.0937192493378498;1.0048867546532856
134026718;156.56127942876938;166.82089338143524;145.45857768495381;1.0938091848232623;0.98572315642492514
134026750;156.12027168297388;169.10160580069271;145.48238032119656;1.0938357325740811;0.99174412968025394
134026859;150.4650624520489;175.64488188304657;146.86292234674104;1.0947752103831732;0.9699907434823638
134026890;147.89292381412363;174.83035934847223;149.05671871309036;1.0969933678624122;0.9730886079748452
134026921;147.21740730645425;174.69230470966625;149.98169994817843;1.0976213987580508;0.9739721802077117
134026953;149.2341102272469;172.09655721340218;150.72970554026205;1.097989193068754;1.0080066684460189
134026984;148.05402314202797;176.64084489300905;151.24684492888832;1.0981861985454147;0.97499693598627057
134027015;146.221286492189;177.22274311544246;152.69238070930874;1.0999964071384438;0.97761084142931554
134027062;144.82369774034729;177.33173096286828;153.91837926685122;1.1013639485172639;0.97946928605895978
134027093;144.1421509047785;177.02574018960348;154.57221311888861;1.1013659983822284;0.97883790804723347
134027125;143.79405973606126;176.65441188738109;155.08979356899616;1.1016215772819569;0.97900514555187867
134027156;143.80018200807589;176.53703436938386;155.39089972242923;1.1018997858371935;0.97950007900245339
134027187;145.681191302065;176.23929443002936;154.56134848705415;1.0960128224819117;0.978344945791329
134027218;145.46942644707403;174.39039976681895;155.30108046024384;1.0970065294801827;0.97826521937136668
134027250;145.21842242994526;175.37233212898715;155.52651010528459;1.0963500583460464;0.97560756691725425
134027296;144.77088172409529;175.41593858179593;155.83643699076433;1.0965019989924576;0.97446301126711576
134027328;138.2004688741763;146.85745274769391;154.74570332078233;1.0937975379315186;1.0350439753704035
134027359;148.88376129472354;171.82129460261032;152.49579275441062;1.0923780980149296;0.97214663488661435
134027390;149.63598103671887;172.0874606697821;151.97994509533569;1.09157366412838;0.97230873361601911
134027421;150.0677946918459;171.81273539023678;151.48705058789969;1.0910388811677887;0.97231867705790787
134027453;150.46738913922957;170.37601888902782;151.09305843133285;1.090525010523959;0.972730047633468
134027484;150.57280335742746;170.49210248783172;150.77886144130028;1.0900986029432846;0.97271921937397177
134027515;150.47908937965283;170.62523064755234;150.6706781455097;1.0900590622641246;0.97277340979495486
134027562;147.99507142010484;168.72641933452599;151.91838288630473;1.0890731278640318;0.97036726968729858
134027593;147.28369394203651;166.40907068805427;153.51517611851565;1.0917431832028597;0.969004924613259
134027625;147.45393747910674;167.87954203087622;153.28280621858244;1.0916674976645995;0.969108986884538
134027656;146.153749030188;171.99310114252589;154.11044114023994;1.0924768120121715;0.97086488807974214
134027687;139.48784178416952;166.21914940208023;154.76968164752273;1.0932873542008867;0.99641980769508753
134027718;143.20918828566317;179.29983603739143;155.71939335475364;1.0946291229105967;0.97457327602298593
134027750;144.11157925747398;177.05586960870772;155.82221798252704;1.0946343139615156;0.97306306745509119
134027796;144.40240631108355;178.37594784140885;155.88774296582568;1.0945098559745647;0.97262630909374737
134027828;144.82284704419331;177.48631645114509;156.12478976901596;1.0948001697382022;0.97223490730531315
134027859;144.98024709912451;176.41108241044481;156.47465313543444;1.0952400669167408;0.97232144508900675
134027890;145.32530821036832;176.52508967847516;156.93203027404221;1.0945950422162671;0.97209228985939333
134027921;145.61333592568249;176.36324992264332;157.08026502198896;1.0938715738764011;0.97183116324878793
134027953;141.52529725186324;175.23225163191719;159.17004403468789;1.0948460941919582;0.9708704744422888
134027984;140.98060168927188;175.09533040062649;159.46500092070022;1.0947689738177791;0.97068003512745082
134028015;131.41728500784782;162.94531189486619;159.60209386754821;1.0941307909401214;1.0220714080343345
134028062;131.08190820801127;163.08902386658613;159.70602314529106;1.0938243843022539;1.021829251471116
134028093;140.6026766146382;172.88424273393713;160.40534575789036;1.0952647819076182;0.96955916984305712
134028125;140.61854757532007;173.67715696955037;160.32393943921366;1.0949754591203056;0.96913967093372611
134028156;144.27133632417221;173.56615324592974;158.6841461999135;1.0934310072044748;0.9688720197759576
134028187;143.98595062728666;172.42884813371376;158.75984371262717;1.0930808957575997;0.96763465823132921
134028218;146.54885046509617;172.75969883143651;157.79453465034717;1.0927476469137873;0.966814596326509
134028250;144.70843486585466;172.19133560949811;158.5718574799339;1.0934206539592033;0.96589303272252758
134028296;146.45840226602405;171.830134307247;157.89458017912952;1.0932193544644078;0.96597299323030783
134028328;136.35366325234287;160.40450924870018;157.95864731962294;1.093500464640075;1.0171327581478284
134028359;147.26458529058397;152.48836153742442;157.95746011749637;1.0937691813068597;1.0159191763612849
134028390;147.45812820459264;153.17190993207913;158.11597116373571;1.0940774882592088;1.0155746030297133
134028421;142.82056929118215;170.03746394498839;158.32930916532575;1.0945196950483294;1.015815791108166
134028453;142.25739095344414;172.51593505609372;158.12152760818378;1.0940039612511519;1.0157659099519112
134028484;146.25270356189802;175.51879741138498;158.1484206658092;1.0942664217954765;0.96773140254798629
134028515;146.29958976511412;175.8265883268117;158.10829683512566;1.0943767130512381;0.96776383670210819
134028562;146.43664295301352;175.80157786579395;158.01786276160146;1.094397028725;0.96767015033932213
134028593;146.50875461362887;175.54009416139172;158.00256136796827;1.0945752288064514;0.96775630929147893
134028625;146.50106467318727;175.12712456722892;158.11697496090292;1.0947333755942821;0.96785667887731686
134028656;142.594036345438;176.17055137096372;158.07744302884245;1.0948208105185673;1.014470709518305
134028687;145.62750301938084;174.72348154928085;158.09809554805798;1.0948677013511607;1.013567441551662
134028718;146.24685620763802;172.98048390119192;158.07182392325905;1.0949258952063075;1.0134533090004105
134028750;146.99435675184887;173.13588427156788;158.13969156746063;1.0949833235293558;0.96729860539372559
134028796;143.36870948812458;176.93062437234951;158.14812641815078;1.0950294556136218;1.0140157812001165
134028828;145.0878935419527;178.35757575988839;158.10225031443576;1.0949798637816968;0.96987370990366129
134028859;145.5055818378558;179.02811772683342;158.14175032574278;1.0949844214304632;0.96920546798020057
134028890;146.25467681208917;179.26582834500056;157.62644376535312;1.0939908812103694;0.96859999134371566
134028921;146.38068656488161;178.82492203404945;157.68071193686825;1.093904501450113;0.968040237416308
134028953;146.82028931497428;178.56762166740373;157.44623387443539;1.0933013071432329;0.96760525139464637
134028984;145.98699729703208;178.95902096994595;157.56469414565572;1.093624972109392;0.96844546605046966
134029015;146.74005373549116;179.9098905179994;156.9174530180704;1.0930811024914984;0.96792089123882641
134029062;146.60347450759358;179.6781447793625;157.08969883719888;1.0933748586587486;0.96803931917440023
134029093;146.41238415178538;179.73097561095224;157.231903244583;1.0935396335610104;0.96792555485108667
134029125;146.38105741267671;179.521696274054;157.25675167160767;1.0936165654895182;0.96772022018085913
134029156;146.89812278803379;178.73567199828892;156.87582939966768;1.0936995871969284;0.96742152315193974
134029187;145.24553294608458;177.86330410863488;157.42314029740439;1.0946306489716655;1.0137746373316037
134029218;145.14883619617669;176.84480352024627;157.76424139452328;1.0950448794551355;1.0139836262690547
134029250;145.0550878438977;176.56472632603177;157.85604325125635;1.095184583826551;1.0140705932228022
134029296;144.90345700923064;176.79698806324279;157.94055569590645;1.0953294547669394;1.014073525956422
134029328;145.75563098871879;177.90435185031731;158.02991333871677;1.0954397517891621;0.96897317381539561
134029359;142.47364109418879;177.52919365956794;159.3166201830519;1.0962012297392803;0.9676658628713013
134029390;143.21144505362062;177.54639953949157;159.09098104068491;1.0961393698388016;0.96815371164069353
134029421;143.33851194240688;177.70871130243654;159.04537120791494;1.0961330788060575;0.96830844556394613
134029453;143.84845790671335;176.47780235760223;159.00716690964308;1.096154978681974;0.96843333010627353
134029484;144.12256938595326;175.55072391888106;159.00690563605315;1.0962666199762661;0.96889659746432222
134029515;145.65706762201612;172.80862394728786;158.67735407196224;1.0960089552677088;0.96792073946717794
134029562;145.11430442937234;174.84597496620546;158.6842495528073;1.096083137055605;0.96892594173171742
134029593;144.89934666186238;175.76559640673005;158.68716704089121;1.0961588067329859;0.969091150743812
134029625;144.93078491718219;175.78280936743076;158.69870675382768;1.0961894438495039;0.96918728388399789
134029656;145.06129327110162;175.97965590228273;158.65128528754943;1.0961383747343814;0.969177789232174
134029687;144.99802966309088;176.45111210758694;158.62892458453575;1.0961053466128115;0.96912211649926072
134029718;146.98769475205575;169.8821468379308;158.08870195609813;1.0955958026499644;1.0138176294041505
134029765;146.25007312910137;170.8992379873676;158.32415674572326;1.0957741650454569;1.0142145042478221
134029796;144.88103051927507;175.3103617079471;158.32694175835593;1.0957103454951036;1.014321515624468
134029828;145.13213170246635;173.95740520771571;158.26241776298474;1.0955645315749076;1.0138320581142353
134029859;145.09332488560082;174.54438534799309;158.24895207662061;1.0954600860556538;1.0134352107073426
134029890;145.11881414287669;174.30275357501733;158.32717849396428;1.0955472082645819;1.0134217998369308
134029921;145.05172318097061;174.48252445435338;158.31910373539969;1.0955566732876019;1.0133969589849101
134029953;137.65924194256;151.75045925355002;158.42512571562006;1.0956043680082377;0.981456629489329
134029984;147.11621939535797;170.02609027397674;158.42391586717895;1.0956766588401332;1.0126194813944174
134030015;131.75909085395992;142.80308239721248;159.60243182182046;1.0965489703942934;0.98632455393974983
134030062;141.61210132709172;179.32504526265728;158.73521481032722;1.0952054338046018;1.0133599596430933
134030093;134.90927642407314;145.32703392433865;158.199849293459;1.0945625071963958;0.983338521066919
134030125;145.38488859352893;178.2348056086893;156.39036832009762;1.0940896261483786;1.0120956290025249
134030156;146.80040680741109;178.20377196390808;155.05200630662003;1.0933701741764172;1.0117202960339762
134030187;147.12973732383773;177.5439969890526;154.94837106267511;1.0932477878979772;1.0118636182098029
134030218;147.35727889662454;177.65190734631426;154.45146741907604;1.0928558720791914;1.0115097565571787
134030250;147.44986341418874;177.14796771545355;154.20189831630475;1.0924407404985845;1.01112653531308
134030296;149.19320661566056;177.17186445077053;152.82928704980216;1.0921326692469873;1.010718610724707
134030328;149.40201408174795;177.00006363847933;152.54608817520244;1.0919745572695834;1.0106956522048054
134030359;149.69410596827481;176.55008005740027;152.2774486775669;1.0919322115121151;1.010514424292702
134030390;149.50712502140988;176.73019437800016;152.2086062666763;1.0916287203047754;1.0104402679546456
134030453;151.04003083602643;174.64242168795758;152.13022091193921;1.0915941273937151;0.968885948954971
134030484;152.92463734360993;173.33585834744744;151.79282602692103;1.0914979185176;0.96713680097588
134030515;153.71315960800408;171.3999074316647;151.7088036099357;1.091491505113009;0.96651002550516041
134030562;151.43721734633596;178.04804345686353;151.24222839403547;1.0913550889525034;0.96650822863596164
134030593;147.08249969936603;162.41400608679521;151.25211623358825;1.0911942314228245;0.97155180791708673
134030625;148.72113329479979;163.51002256511751;150.14008289675567;1.0881103604248636;0.96757935338995371
134030656;149.42568329667759;166.9345562119689;150.32037208682712;1.0902383118797925;0.9670037634099341
134030687;154.05543780837826;176.91020796335093;150.02909441057881;1.0888225509161782;0.96237866963295071
134030718;153.6980390757366;178.13622287611929;150.02276514624342;1.0900835551467925;0.96375964186003216
