TimeStamp;AngleElbow;AngleWrist;AngleShoulder;LShoulderElbow;LElbowWrist
134847453;112.65953190950847;134.98367431893308;152.26362076618062;0.15071002871423533;0.1315060752132938
134847484;115.57323060509637;146.46780035033487;152.4999510449953;0.14979984699021431;0.13239221355239578
134847515;121.04936145802056;145.48191470398652;150.19207083633614;0.14950522136743608;0.13496950652849041
134847562;116.81396867981866;108.13082581518164;138.84609851373065;0.15510264228015719;0.14188776840787554
134847593;117.02586335873603;109.05749915935654;138.53217899589203;0.15344665711268618;0.14273992179031017
134847625;96.270719311434732;90.462134902445371;146.7792968280572;0.14736243065231749;0.1437814443145341
134847656;84.7214115407965;177.97339352223898;148.91953329564925;0.14388278246462624;0.14347365808233337
134847687;89.666921641672431;177.29926435596877;142.67787914146669;0.14109098441456888;0.14235660348734538
134847718;89.178555390202519;177.2027836544778;147.72025952144074;0.13748345274586535;0.1418550151339831
134847750;79.879190878201783;177.14844429629952;144.69296382654545;0.13866205834597667;0.14159399910383669
134847781;150.93797228004439;177.08860471373706;129.48451991680506;0.16215476793485797;0.14088612178500276
134847828;160.7617618388233;108.09527361277698;130.33105982897155;0.15797058211786952;0.14135121983657953
134847859;167.33443413271368;115.02304242273299;129.01377591494349;0.16244838067238135;0.14165783949053978
134847890;169.46330182094775;117.87804748758065;129.08431871934408;0.16383936412733377;0.14174291018271432
134847921;104.64381110763674;114.07336110822882;128.7015850267764;0.17156608320721742;0.1409621327787724
134847953;113.3996648404117;165.46660469866751;126.40394190352743;0.17643160178158254;0.13955463561944939
134847984;115.82505049235418;161.79745371892977;122.23356911153681;0.18774138936717985;0.14019079489479591
134848015;129.4081520498051;177.30029313195666;119.47585273782725;0.18545031543107343;0.14160946088624571
134848062;149.81818921940473;131.30314164206462;97.015298522362272;0.19556153024919509;0.14111238321779215
134848093;163.14490403087314;142.03972298067123;96.225705122845611;0.19312988901004466;0.14041491031940431
134848125;165.79005822635773;119.08766092210171;103.83094122733129;0.1943070825723176;0.14133419209563308
134848156;167.38358291069392;108.38286222569094;137.85379065668548;0.16950800476951425;0.14052135144670122
134848187;167.30258095892529;80.9784871187851;141.46000501136419;0.16538879130681489;0.13983891283496683
134848218;171.91534884352683;86.83616037852768;141.0769047447113;0.1588674714825076;0.13945026477903541
134848250;173.47765801353424;93.676691405485641;140.19432744882576;0.16275397421054708;0.13939744070900728
134848281;172.63360130207653;73.67354648549896;140.25271965478248;0.16389778082894627;0.13933298795578983
134848312;171.48906786032953;95.931359020297378;140.40329287704765;0.15875434190507332;0.13915134296557286
134848359;169.90550293216495;97.884082539705446;143.72023932244093;0.15307941409476994;0.13846223171877298
134848390;169.40065204742678;105.14670208074382;144.53438654074984;0.15224048445050825;0.13781502075650884
134848421;173.42028896818911;177.32104040424784;144.70223008119004;0.15124826023823529;0.13653706609394767
134848453;173.78418734762613;177.32541468415778;144.39890351813116;0.14976068140378029;0.13609671280726024
134848484;170.14824499123529;177.3743692460063;144.72171426285613;0.14898623212457332;0.13606896722102088
134848515;156.18073829710266;126.31800869731416;145.63864799352163;0.13620298842696532;0.13618397756311346
134848546;111.45377349908652;179.31391613897347;150.08840966111734;0.1355236305963177;0.18425082718304042
134848593;155.82574498572919;176.68621998006248;129.13252451189703;0.13883927529585294;0.18261569422174354
134848625;160.37175952561074;174.52169005630327;124.23809030739666;0.13794180198559508;0.18081606788121907
134848656;166.90632782442305;172.47584938029661;131.14658745457507;0.13879742794646441;0.18153622812993744
134848687;136.54778582890108;173.2541557808911;143.90244612175258;0.16590186693119716;0.18224660706966958
134848718;126.11716433957983;173.20981096166983;147.34046644202348;0.16921923115574072;0.18359491340949188
134848750;126.97979088959615;177.01381620634805;140.47985112016298;0.16151351658122023;0.18461046690412927
134848781;150.88984856994887;152.67459129057502;133.60737671977384;0.18764544612208459;0.18480740376652055
134848828;146.77870033776776;155.06668548624234;135.89759136323937;0.18770789981370897;0.18487503217050341
134848859;144.28128718960264;155.57116189975889;136.4529514677053;0.18781438222984065;0.18497660736841537
134848890;143.94966319491837;154.41781348153194;137.70985435743765;0.18789657422308875;0.18504234371880132
134848921;134.25631200822332;158.42661903358518;142.9645056003115;0.18760172235579117;0.18497595791797236
134848953;132.68653906135896;157.51901690630328;144.1446663384553;0.18755463660382454;0.18490448749196556
134848984;126.91493043774342;175.92827361091753;141.92567282426629;0.18770292266510097;0.17958892894773576
134849015;126.53842166552215;175.71502411021226;141.95385664226342;0.18769381228357734;0.17924944261217768
134849062;124.86599469132975;172.0302852855923;142.60007979959633;0.18765759482038888;0.18458402368858021
134849093;126.62303132349926;176.34110664163143;142.67810735503048;0.18764458278283772;0.17007708924815518
134849125;126.68539682665944;177.76026439027481;142.81323844069445;0.18762262799877097;0.16937507359600559
134849156;126.60446835763834;178.51655463050463;143.20236794809571;0.18758987040962427;0.16794299119697848
134849187;126.61134764960251;179.03825078100908;144.03379304818574;0.18752463179010531;0.16605741866993035
134849218;127.43537911679869;178.97720622147139;144.19848976683255;0.18749003948355067;0.16548773167593708
134849250;131.08431560455657;178.0469243465929;144.11041161533461;0.18744949980528869;0.15867090832008476
134849281;131.07567978298016;177.50163186825333;145.28734186168367;0.18737078322393028;0.16039373608489826
134849328;131.15346496068614;177.2275292207261;145.81211345720752;0.187299353619562;0.16021560925515743
134849359;129.52490575783989;177.23034085835184;146.90236536026606;0.18718243652213992;0.16179867102707057
134849390;129.90848587333483;176.72659038458991;146.96676642704153;0.18713163584128587;0.16099237263616209
134849421;130.32637817947389;176.42287459317177;147.82930741010804;0.18540584814757732;0.16255203168859722
134849453;111.45808033297735;165.27484157661439;161.28447134580978;0.18588005895936693;0.18415340638641903
134849484;112.96537855425844;164.68528703802542;162.51261041286665;0.18579521698505802;0.18411669158644509
134849515;112.4691610516926;165.38578964345126;162.90838920893498;0.18571377244662513;0.18405240322180785
134849593;112.95828817183431;165.44515358313421;164.11766825695713;0.1855899512831152;0.18395394771798157
134849625;109.50051395066667;166.43470387408462;167.41460096949763;0.18588519036366449;0.18464007733748045
134849656;113.30963138197011;166.23638377888116;167.72817164248326;0.18586798493931755;0.18460487761156472
134849687;112.40038136593215;167.01558365698477;167.66537705552395;0.18584234040062442;0.18453829657332388
134849718;109.52907423184799;168.080250150993;166.01667601330391;0.18589030590949027;0.18441697637696947
134849750;108.50168533250358;169.49509216631915;165.95903028994312;0.18657095825602568;0.18503517979953038
134849781;136.92037689875866;174.77913086973115;150.16988564941443;0.17754775279644958;0.17802361647881826
134849828;108.80222047587722;171.08627007877763;165.58208879747653;0.18716681297600493;0.18560568096464084
134849859;108.11486505824007;172.16728689838473;165.44770760441944;0.18767330513742131;0.186108003480033
134849890;137.9743743872865;175.37743150901844;148.1095181953749;0.16483346662067402;0.18147134936881659
134849921;137.84963653480639;174.75470887100963;148.01995712521608;0.16464303291316029;0.18237626545542643
134849953;137.89159651960321;175.48422272536342;148.00596494781652;0.16451326831070987;0.18325130538826939
134849984;137.88979041916426;176.53450461835118;148.47428497426736;0.16573869372717948;0.18234391338662243
134850015;137.82276992232755;176.00768036575607;148.38275662203088;0.16563171376340038;0.18256767823132625
134850062;137.10901362881046;176.36568758038115;149.95566841384189;0.1689759075251992;0.18222922960960128
134850093;137.2751012041735;175.92582601210222;149.24520307228048;0.16777563070169874;0.18258819708664692
134850125;137.6180401442389;177.12639583377464;148.849148233948;0.16747714963065061;0.18134468693341516
134850156;137.9206671192137;176.99231075978989;148.45729144882253;0.16691902758117722;0.18066242296203505
134850187;138.00310920370734;177.0058236050225;148.40221556512339;0.16704085796565035;0.17975396819089315
134850218;137.99979955359228;177.31071891034168;148.43203988679073;0.1672686459321554;0.17923660380156353
134850250;137.98196370210223;179.17581971502298;148.42296645559622;0.16735890571035067;0.17928871831639384
134850296;110.69317972808922;170.65747599632942;167.56870357316043;0.19223666932061262;0.1910291843756747
134850312;110.50827995836119;170.81115090007472;166.96581833426436;0.19226072762451379;0.19102647903713049
134850359;111.53785103577427;171.1933903084055;167.06218829869752;0.19226596694110937;0.19103797629113331
134850390;112.44232276240791;171.06595003775223;167.12251937062885;0.19226695566617619;0.19104355094557218
134850421;113.2075972816324;171.59576121321706;165.45093245193567;0.19232144936811982;0.19104703831424491
134850453;117.47947577736355;168.60364487998771;164.07970447173383;0.19238574714590065;0.19106916683426725
134850484;134.70384996695228;173.92978185196137;149.26316270290835;0.19331475780245788;0.16834613118332983
134850515;135.52261667908013;173.92797331167546;149.24289384010106;0.19333072825229716;0.16845800971835018
134850562;136.03121138803058;173.3827824451711;149.33820521569487;0.19334775890709224;0.16864688272023393
134850593;136.46231656942317;173.83223002318647;149.20929208226079;0.19338028999019477;0.16898469497034785
134850625;136.78043240268366;172.70446534940098;149.17887647409631;0.19342103053789392;0.16987626536327705
134850656;136.59323655561573;172.00113611728128;147.59724662935068;0.19353555732037392;0.16879296444672043
134850687;136.3149747501374;172.61066626489713;146.72159630283733;0.19361254529967789;0.17073987980428845
134850718;136.59928306498077;172.79983467501293;146.590706679895;0.19367535665646887;0.17426073142834511
134850750;136.83115624608786;173.17500151148059;146.20892669883943;0.19374788112502789;0.17609190290840904
134850781;139.28915519877535;172.94763986694824;144.28140879891296;0.18836552665224182;0.17732699766144119
134850828;139.18620797403017;173.62153969161116;144.41042755241361;0.18831954326338238;0.17861844703956506
134850859;139.57492034805782;173.5849009785552;143.67590319935212;0.18577227004695121;0.17981641290489214
134850890;139.367694936684;174.054368150307;144.04166323863407;0.18680248192252524;0.18117237663401895
134850921;139.46447359564741;173.8929283437628;143.30720347016694;0.18441670942900063;0.18405457714616152
134850953;138.06504306015174;173.63590273779292;143.22993019718416;0.19415486598987852;0.178835522308207
134850984;138.4470941298278;171.97478493232475;143.27355972257746;0.19420077251127429;0.17934174053871135
134851015;140.4731027738336;172.15044902710338;142.26883929994526;0.19116138535372246;0.18208137347015313
134851062;140.6157198208571;171.48459804617286;141.10513802885276;0.19444371915490324;0.17865292462707103
134851093;140.96461422314133;171.43520737044895;140.44049210724225;0.19453985046212935;0.17789929831938392
134851125;141.66603289007153;172.83346209294896;139.68813376697943;0.1946307217620955;0.17786903779324154
134851156;142.38707799807455;172.86487765413557;138.55564883911262;0.19475823165793083;0.17989594292118422
134851187;142.95326000357625;172.68609206549206;137.32006182613529;0.19488705662565994;0.18147121135677086
134851250;145.31543851751803;173.84537673282176;135.4751969588259;0.19509011128235235;0.18388840829811251
134851296;145.76282674027104;174.31569244916784;135.09770691685725;0.1951453501606138;0.18671859529090973
134851328;144.88437926787393;173.11573625002137;135.26557252136342;0.19518025395401026;0.18536732802792594
134851359;144.47389203443646;173.3766183489162;134.67327871036096;0.19520938668200921;0.18173435159876292
134851390;144.68085702435377;173.92206444086824;135.39270120816173;0.19521750436658861;0.18394334753345451
134851421;144.92106074166824;164.51437794942072;138.3615140157585;0.19518229992649425;0.19192179877320933
134851453;144.33560672018683;163.9552467949099;138.41527339608322;0.19534072601210895;0.19208134969646509
134851484;144.5156239701391;164.74918671856227;138.98567201115637;0.19540199473112377;0.19218121295094931
134851515;145.52031701070504;176.27117000554475;135.90008141508889;0.19549172474745963;0.18340524806751624
134851562;145.42167715087365;177.13437591642978;135.96121779225186;0.19549593713182076;0.18264421131192915
134851593;145.20662362137128;177.73089999946012;135.94096091081522;0.19548603574899895;0.18221495204410704
134851625;144.98466318108342;175.24117126257761;136.01855596808562;0.1954605294819548;0.18138783213817405
134851656;144.65089461373466;174.28679950363531;136.43237491431958;0.19540390904777841;0.17937072268744253
134851687;129.94339668287938;169.46699935624685;149.63927181292968;0.19498896131041565;0.19192669459160491
134851718;128.47938786329448;169.29690366626193;150.8589573037776;0.19480441798460454;0.19184239883720911
134851750;125.48055917686244;170.15870292014478;153.46391622742607;0.19453371866071209;0.19173792845050275
134851781;124.339277047253;169.48871020087705;155.33224266696615;0.19428246941714492;0.19163051662443975
134851828;122.48978204012656;170.36186824378117;156.91027852211326;0.19399287362198869;0.19153455200652933
134851859;145.51681554598164;172.52369785287229;142.26225531776154;0.16520085551905248;0.19185259681452097
134851890;145.66320207562723;172.97931668840977;142.57549723976595;0.16641194770808934;0.19185887909669849
134851921;145.74359890720524;173.27754152826003;143.05834655118079;0.16538118047599765;0.1918572493181776
134851953;145.71807088618687;173.68583054097815;142.76974259668515;0.1648067916947496;0.19187654284922304
134851984;145.42233193546423;174.50625010919561;143.04116672177426;0.16549139965609377;0.1919045464679511
134852015;145.36346501323854;173.76308769927283;142.70366062102394;0.16433824158493815;0.19184358421104378
134852062;145.42428420223595;175.34917933622469;142.13401399127073;0.16386660284032034;0.18918285770585872
134852093;145.66830104489119;175.28129179972592;141.89566411370274;0.16502998036120206;0.18711981510825057
134852125;139.20595765510984;171.90131417909973;141.82629626663518;0.18373978950114228;0.17551209925169514
134852187;139.57352555423063;171.75987984302498;140.41467374013939;0.18407982967557779;0.17734996360957434
134852218;140.04373982369339;173.45860748520272;139.56060625901236;0.18397986527224339;0.17704631600038737
134852281;138.89945484332733;171.54037499284718;138.55144291162654;0.18401771182076823;0.17837345163609406
134852328;137.91800103870986;173.34548575220379;139.77522241601136;0.18616064476551605;0.17759968870880633
134852359;137.95228975152256;171.74492962011172;138.72072149136696;0.18433381518105343;0.17809323691395268
134852390;137.58020848575188;173.36225838618981;138.13378771205427;0.18312562570087765;0.178943260222641
134852421;136.5918954793824;173.8892510560043;137.7583913889018;0.18211702714545427;0.18142135372059867
134852453;136.12984401069957;174.81717288985493;137.37122100409172;0.18133709887555627;0.18245695547681007
134852484;135.721967147856;173.81070468060281;136.9955808902242;0.18051434180653439;0.18328309049365904
134852515;135.11001047263679;175.18428747662756;136.67317166821195;0.18001625779446578;0.18338311209751304
134852562;133.73652825897375;176.60353256196245;138.21379691773768;0.18293774920968667;0.18287827481768956
134852593;132.65464234785142;177.254083961529;139.87284261257653;0.18610012124925618;0.18242383513308391
134852625;109.24847106872649;168.04096307239567;156.95904868521751;0.19332144288966011;0.19292783055654222
134852656;108.19316531877549;168.27528271587875;156.86806541300933;0.19335340105954849;0.19295517640627036
134852718;106.97827313102896;167.49949228036988;156.66397991576216;0.19339021124494848;0.19296072049255883
134852750;105.79617316561557;167.89601342718609;156.54416125695821;0.19338186838879612;0.19295012707460438
134852781;104.81627031740689;168.82570988240772;156.46449206261235;0.19340167462358615;0.19297102697066051
134852828;104.12257201202195;169.17002100588528;156.18038759783354;0.19340127073209132;0.192983980838905
134852859;103.5464417536149;169.00572313910675;156.00470697279837;0.19340623728200845;0.19294981078332643
134852890;101.92999003946456;169.10438591016239;154.91280479259419;0.19329458104348457;0.19297405409710289
134852921;100.76332711325129;170.5010599948406;155.20937333393252;0.1932387709755162;0.19297693634225327
134852953;99.85178433012598;170.45387358754223;156.11513614148598;0.19361449323290073;0.19332898182968253
134852984;98.945976542420311;170.12763059130333;156.71436033640777;0.19397002144370093;0.19364893010892834
134853015;96.612252963068059;107.30349645524332;80.658083746553572;0.14785557439906413;0.1442497962447582
134853062;29.893139808283848;177.96214914250146;89.397174494581051;0.14462524848684191;0.19183399353509462
134853093;29.929767889169604;177.96244658695576;89.772974388973608;0.14461901218939216;0.19184303575288689
134853125;29.924850008871083;177.96231520388449;90.041937529206166;0.14463384424782441;0.19184161944275935
134853156;30.145136534657649;177.95906531221485;91.468490780054864;0.1446814978302832;0.19172674273973528
134853187;30.302364089663438;177.95936800996651;93.051172871001739;0.14467832460163668;0.19173776110506482
134853218;30.678211224867997;177.95929952581716;90.600958220093929;0.14494840172080267;0.19173576736203674
134853250;32.206088015300722;177.95833453873738;87.229941465721851;0.14511769064281541;0.19169691102971803
134853281;32.432029876605704;177.95900799698467;87.560991649868143;0.14508581458902295;0.1917227457863144
134853328;31.689401486733981;177.95782585687553;89.013652329419031;0.14490433684602994;0.19168032447636579
134853359;32.542254985878969;177.95902997883653;89.206567511115821;0.14489172915479398;0.19172937646355959
134853390;33.391098782554892;177.95289563159776;88.276411592491073;0.14470143262059429;0.19128087625474377
134853421;33.464313823854816;177.94942486782844;88.224960122072986;0.14442469967221269;0.19094704804447968
134853453;33.279677809296068;177.946124127731;88.573718885220117;0.14395489625876648;0.19063477305859719
134853484;32.74548839909194;177.94467603435433;93.001853023487783;0.14378983894230416;0.19040213087645638
134853515;32.986426947342608;177.94256919354623;88.270008824097047;0.14360063264981271;0.19011499306015084
134853562;30.192320858817897;177.94428386579546;92.038892572595344;0.14276870480784648;0.19001837904351435
134853593;31.914943533078002;177.94155366407077;90.239488234900293;0.14309466865885068;0.18982110945830008
134853625;31.328864368825915;177.93936702096869;92.125752813626391;0.14266372355408774;0.18956317237787787
134853656;28.722493842255641;177.93933520579364;94.615643598950172;0.14190670630917399;0.18940481326118389
134853687;26.800031135672548;177.93931631021883;95.6156752851621;0.14139687426022543;0.189282869925389
134853718;26.307572570659811;177.93800937153742;96.173666992726254;0.14113918427859651;0.1891426725761205
134853750;26.25683692628461;177.93985776250517;95.8061984418803;0.14128356479032281;0.18931186072126446
134853781;25.881136773548931;177.94020414382737;95.508287106182365;0.14121615382649064;0.18932012259617415
134853828;25.226232976454575;177.94057681532863;95.152891876467166;0.14112915228795223;0.18933012870718552
134853859;24.592286257815463;177.94100474100728;95.043065363623811;0.1410521772957444;0.1893379412650234
134853890;29.344410646756408;177.93273593497875;90.854766336680811;0.14233466137013986;0.18914263936172465
134853921;28.179373083040467;177.93525318063931;91.659304346809733;0.14245516205700637;0.18943356567863656
134853953;28.068902588143644;177.93804128731804;92.702072026143014;0.14262003030651116;0.18970012128616895
134853984;26.375090716801157;177.9390177863595;90.093540509572563;0.14300346262642766;0.18990339338456677
134854015;26.822842876795757;177.94172349334068;90.348140036912142;0.14319571613194929;0.19013325434839151
134854062;27.266559693762716;177.94168123689985;90.545941068401049;0.1432198026300934;0.19013534300249865
134854093;27.71440240866545;177.942153283833;91.826713147886352;0.14313207701549888;0.19014561039197916
134854125;26.127972547961662;177.94528312938073;94.403747739452854;0.14262441432272552;0.19023509821513068
134854156;25.449976645347327;177.94704035116408;95.776387854911121;0.14235939912577875;0.19028047986998081
134854187;24.964968864891581;177.94852154834885;96.9575946658837;0.14215056950673516;0.19031594543505823
134854218;24.58714309754053;177.94930526085739;97.519083058943238;0.14204107599156743;0.19033561544302216
134854250;24.333065816380575;177.95002572421507;98.310989646672169;0.14192698744057522;0.19035393019547439
134854281;24.089812051244941;177.95085348369031;99.192305336355872;0.14179816026745873;0.19037046552106421
134854328;26.032845217396723;177.96471210652885;99.6319142674754;0.14179043050285223;0.19064532552642038
134854359;25.846096270645933;177.96545541743879;101.34934252227427;0.14173928754857559;0.19066038841886829
134854390;25.985980223598471;177.96604254312308;101.12293252277593;0.14170219835247164;0.19067214968296195
134854421;26.074607640591424;177.97129041681302;100.90809873802908;0.1414723857598664;0.19075755155701696
134854453;26.20644358963338;177.97529518509242;101.56719720636232;0.14133245005166156;0.19081988741906528
134854484;26.303424009739619;177.97546940825711;106.30691184776809;0.14130467449555859;0.19082260456458405
134854515;26.565796784713704;177.97296525178606;109.73685412769358;0.14107786728571917;0.19055611183239049
134854562;27.02826554384362;177.9753460901122;111.71280414264187;0.14094510844451957;0.19050078962234585
134854593;34.177314185478771;177.76611996627247;105.45882610709299;0.14212674479528423;0.17368101865352212
134854625;33.702859884429287;177.77042032937669;111.62858407653356;0.141574495749647;0.17243120962395175
134854656;141.60087133912015;169.53481660884765;70.96147238527999;0.19695018534957148;0.19364320963438322
134854687;152.1044789274446;172.86745826262094;74.131229974236035;0.14658112916894206;0.19404810024613906
134854718;148.32349385549986;173.08861633813481;73.546782044694609;0.14655353453319109;0.1941577910800304
134854750;113.20943285266498;168.90533258013633;97.169346428147989;0.14212377744243279;0.19459100855405651
134854781;108.09243070515196;172.03273514739431;81.153695987374562;0.1436364056275404;0.19428059841962952
134854828;108.0314325408672;172.16160430752717;80.773442465655336;0.14365251008139054;0.19431277208507522
134854859;107.6144457991777;172.35086770198106;78.140299522023213;0.14388486808591322;0.19431879386095297
134854890;107.17205103453813;172.25007518564493;76.810529467079036;0.14400260637116571;0.19433640126738536
134854921;107.60074010231539;172.38867679511702;77.099361349678844;0.1439549685998669;0.19437161301501796
134854953;107.53310958153578;171.61575075093097;77.3626638082636;0.14393915969096913;0.1944115330708085
134854984;107.09531490516363;171.24562526979133;76.5788957165428;0.14400118034822032;0.19444432820142218
134855015;104.77060372277262;154.34691039858163;94.352332414427309;0.14209953330577183;0.19496443351781811
134855062;108.5093479342938;165.53084354366618;96.173344564809653;0.14188653411553226;0.19486430849006267
134855093;109.8827994854633;165.70397119229733;103.77880165912836;0.1411739173830166;0.19492175222173339
134855125;109.66731294031912;165.71528121578868;104.79843439358352;0.14105679919749781;0.19492375869097997
134855156;99.834008685607;140.37485640424779;105.14165602325681;0.14098223234032867;0.19520271695595212
134855187;99.66773479538476;139.93055719259877;105.97159247927696;0.1408894342884168;0.1952066119149472
134855218;98.910266342776012;139.06330923040204;106.68194925782014;0.14073622193655286;0.19520564395930606
134855250;66.612652245212786;179.56938290329563;106.28239434792408;0.14069269260718634;0.19494486525882687
134855296;67.479057224692582;179.05101261455488;106.26597556345693;0.14062781203711894;0.19498267413473622
134855328;69.441593246685585;179.37013481552899;104.34192629859976;0.1406871378475682;0.19503366072581824
134855359;105.49477035076697;169.97983106786771;52.869376264941309;0.19732439034197613;0.14505393039019152
134855390;106.11261226106602;168.89983587926648;52.673828010433084;0.197333102970733;0.14507896189670061
134855421;106.18428897689859;168.43464999935537;52.618642101374462;0.19733915631663346;0.14508380520489475
134855453;123.62578089975483;122.52460791465188;41.383991956427117;0.19763081593211565;0.14576790179401419
134855484;121.08723563598348;122.56997373767946;42.667963085638675;0.19751570323501824;0.14575571059214978
134855515;17.902931883570151;122.44909276342757;28.123302851041185;0.19829819971096391;0.16493791067967428
134855546;17.902424036737692;126.25643045949069;27.7095054445333;0.19830355000978245;0.16274794431719378
134855593;18.441073859748283;130.28966073876961;27.495182722867924;0.19829868037477921;0.15942381861575
134855625;19.291510528875779;130.37798309659175;28.932191240219908;0.19793729763040813;0.1410814232854955
134855656;18.992227925137314;130.9027879440774;29.106927988755178;0.19794968946110089;0.14222998033985287
134855687;151.61841720870646;72.156349862034276;29.319561277169417;0.19796438646450448;0.14608436696579555
134855718;152.74097036396219;70.609706033802738;29.169799954531143;0.19795715606927627;0.14608643881064903
134855750;152.692553531749;72.598151773292173;28.973256825019451;0.19795411321979;0.14607936286456105
134855781;152.95492049550555;73.3614771279393;29.172038095262224;0.19794988148223372;0.14607654927219471
134855828;153.42019672222421;69.992968900796257;29.275572323629589;0.19795228381482513;0.14606797239019062
134855859;153.56385165654146;74.447254499572153;29.413629142434388;0.19795386422839842;0.1460565241948103
134855890;152.78956987398209;72.303289212632436;29.5005457414893;0.19795418325530576;0.14602261631053407
134855921;152.42471518439345;89.91358602896274;29.748197841891734;0.19794690043839214;0.14600748201444982
134855953;148.39828742284442;72.135048171678037;31.155214750879537;0.19796619843607258;0.14605146271300543
134855984;147.01905522103991;66.398389639716939;31.765211346931086;0.19796300253964905;0.1460511562289884
134856015;148.89036322094549;68.023847677176335;31.463843289125755;0.19793403544387786;0.14601555529339455
134856062;146.22967944128564;67.62574304377344;32.432010079699509;0.19794174371041637;0.14600819698059234
134856093;147.25314400523772;70.44907679545193;32.468047993380232;0.19790549816298592;0.14598640022770051
134856125;146.92360935100504;70.360603176341471;32.8294680891088;0.19787995479150852;0.14596956662348079
134856156;147.66163875235642;71.049010241277728;32.834532305575571;0.1978695305814292;0.14596528588124905
134856187;145.67236974124521;68.682427440693729;33.717917357096489;0.19787243372673893;0.14599338339509568
134856218;146.05245220875398;72.8297661095009;33.787850278069556;0.1978605778554634;0.14598049783326092
134856250;145.83097223652524;66.807347695949872;34.155274286192295;0.19785017404182151;0.14596538241208848
134856281;145.5970639252028;73.29451065283628;34.35331620315948;0.19785371559399326;0.14594820067473152
134856328;145.8460006666499;79.34489540781172;34.454579561400486;0.19787475849392863;0.14592780011787829
134856359;146.66001485988596;75.160537418640061;33.90461093978486;0.1979531587704077;0.14596024303657712
134856390;149.79112641862565;78.5943225878825;32.770564097577989;0.19802971587128102;0.14599341866794449
134856421;150.03246464849266;85.853306237566116;32.785618763817219;0.19803456313003429;0.14602304884452677
134856453;19.257234647875407;127.07749455618379;32.556213956553471;0.19803401811490348;0.14421086096813141
134856484;19.767833907719805;123.12571403470069;32.170343876475158;0.19816604061120902;0.14440823506537159
134856515;18.729206407025437;120.9357593847124;30.762144865015582;0.19821492303610938;0.14692781459896451
134856562;16.622606929955854;130.0794037941011;31.494519097703058;0.19794754497935316;0.1391199108045163
134856593;15.336082175789246;130.13516248805121;30.885717278346927;0.19797303932246382;0.14107478891157302
134856625;15.162604940140394;133.31566918669205;27.107179636320662;0.19822791886336943;0.14369799273129491
134856656;13.83988930933576;130.50779811410052;27.566199166647948;0.19817185915007007;0.14416013990232895
134856687;12.319295341693724;130.54435756418567;27.73414374812425;0.19817500209305552;0.14421721004628527
134856718;12.919141106884393;127.95380951113918;27.437623095653496;0.19819332183179658;0.14692074640077907
134856750;12.844486801874924;125.29909433151379;27.324589098063878;0.19820311447987446;0.14841933633140475
134856781;13.447020533846157;121.23994928550484;26.326053159568175;0.19829876853828826;0.14996983733368424
134856828;12.858443679203711;119.55366635259209;26.294394446740966;0.19831426452350631;0.15134881093622057
134856859;13.017814052540418;115.35845187767259;25.934160357883318;0.19833163939884704;0.15051134547974321
134856890;11.621763520999812;113.62361592839379;25.907495888663561;0.19834604293383218;0.14963815537866299
134856921;15.189360387150751;124.09335503353846;25.627781403551552;0.19836271341108722;0.15154170800554137
134856953;159.89740197965159;153.92881354185448;25.458207523346875;0.19838010524540334;0.194840252710624
134856984;159.39832502969162;152.79725314599173;25.098156711769228;0.19837186994071659;0.19484274111562938
134857015;149.22383053129045;96.476855351594452;24.93379357598003;0.19837828053887102;0.19495606653802575
134857093;148.9648292820022;96.319960985091853;25.135241085022926;0.1983663740884776;0.19494578378717389
134857125;148.55392695145983;95.699810660814549;25.408458652381;0.19835601193854005;0.19493124043723548
134857187;147.45213533852694;95.506344270406188;26.323909672616576;0.19833697007489248;0.19490378911941328
134857218;148.19392876857691;94.70553088898788;26.466915522342042;0.19837141429272193;0.19489719618556015
134857250;147.52667962960857;94.750522502718141;27.853889847310249;0.1983854764088675;0.19485933035659458
134857296;145.42494291165485;95.245217206551857;27.998614976143831;0.1983796473751665;0.19477095916889545
134857328;144.92667648926542;94.166208377806754;28.84104007697832;0.19837956904070844;0.19473172200282624
134857359;154.71283524706993;169.50423614365715;28.98212343622443;0.19838133097518515;0.19460685462824034
134857390;154.26053540459384;170.67683807526103;29.058455455369629;0.19837917393256752;0.1945905956123338
134857421;153.89534922405261;171.15298088908614;29.404761423470735;0.19837299049559337;0.19457071669801132
134857453;153.24146830367613;171.91298145460135;30.294538914082139;0.19837140404159911;0.19454516460160182
134857484;158.32216677400359;173.52169895777752;31.218976624255692;0.19833718230515338;0.19439961486076923
134857515;158.46271545482676;173.84309582577805;31.692348825790866;0.19832074679849121;0.19438572462945758
134857562;158.54532129090845;173.81791773101958;32.038364510178326;0.19831119031371527;0.19437539021261494
134857593;154.12987444099534;172.19276769901035;31.727876812055598;0.19832756525387471;0.19442907456962724
134857625;145.58020803255425;93.034096712577636;30.728872107312935;0.19831558484233064;0.19439319125867979
134857656;145.31802147064158;92.479567326164315;30.833787452919783;0.19831562055891891;0.19436627188799513
134857687;145.87063071771198;92.7838714330206;31.782807737970479;0.19829119545072876;0.19436097363541843
134857718;145.65432379633958;165.42281993191645;31.271474997690195;0.19827880162601463;0.19431814861472749
134857750;146.85095375082852;164.93437813089383;32.004250650213571;0.19825243716196636;0.19430735351057307
134857812;147.13509772733698;162.75638089036534;31.843097182786391;0.1982500275228456;0.19424523448153261
134857859;146.90122893447347;162.12010832405358;31.700171686657097;0.19825142596755374;0.19422583023399123
134857890;146.68397854284854;160.78039911192272;31.760709528375894;0.19825823155705705;0.19417990662617593
134857921;148.95374923410657;161.77731479832383;33.524296352119919;0.19822969512346661;0.19419021410457002
134857953;149.67679188195328;163.74312065177318;34.194686235504591;0.19821998556890233;0.19416790042540197
134857984;150.01895623969506;163.49893270833422;34.616227802154668;0.198214594077279;0.19415834034075344
134858015;148.45404716699551;161.77963581177085;33.695057083867823;0.19821952058902642;0.19413499149365635
134858062;149.08079100235912;164.4883909122527;34.515009521110827;0.19821299303717088;0.1941016459309427
134858093;149.30217065263975;164.59372961028;34.968637545756081;0.19820637299811986;0.19408410872288712
134858125;147.77096369850509;164.68248109810196;34.268643183060874;0.19822071441599204;0.19403586448076696
134858156;148.53919343997833;165.25068473979459;34.705984891226485;0.1982085118082223;0.19401768190140209
134858187;147.56651891584158;164.98812895429163;34.11512048931116;0.19821899338683321;0.19398191009869209
134858218;148.06601660781257;165.86048501203018;34.536333050897618;0.1982101052611403;0.19394242845426046
134858250;148.19790284921427;165.0010237157197;34.711161381616051;0.1982059227749251;0.19393891488618262
134858281;148.4959992520439;164.98030996359239;34.778677810033265;0.19820294879664058;0.19394377652551262
134858328;148.63007458561981;164.45098869152093;34.817807439428378;0.19820309164207897;0.19394810837865276
134858390;148.71629018139885;164.49276717604511;34.7283457957743;0.1982059438493739;0.19394812259448446
134858421;153.18088991586237;169.07492691405588;34.7321822576708;0.1982077270604069;0.19395920303755779
134858453;153.25142072030434;167.49117443345673;34.618824770551896;0.19820967926870448;0.19396926027346048
134858484;138.08803093103043;163.8334844362754;26.177288032784304;0.19827963064428003;0.19386798931845639
134858515;137.74997180341981;116.9663300179745;26.02258385256523;0.198282611978244;0.19387380389302045
134858562;147.32169599255875;97.820272154526819;32.014817691413441;0.19822062772869559;0.19402539821518464
134858593;136.78183507041575;106.94143583801976;25.011206033295032;0.19829138660357831;0.193900477892411
134858625;125.08251809087325;172.67617773436368;31.890120387681769;0.19822424451569148;0.19395623793236982
134858656;130.29174364833096;151.81863066166955;32.873948614389242;0.19821510008273496;0.19429146164160213
134858687;124.64365759499481;172.41777049612983;100.1692119681818;0.1426461872387165;0.1949173086141982
134858718;124.77604765860851;172.30593186599663;100.1564054260766;0.14267036542968609;0.19491809509394015
134858750;124.92112549139812;172.24250006751322;100.10365671249299;0.14269286137225859;0.19491683565964954
134858796;125.05026609014699;172.71661682108334;100.07327506984832;0.14271087509520908;0.19491576472546252
134858828;125.28187620652852;172.68578002274859;99.953765137144316;0.14274748345947885;0.19491479168424017
134858859;125.37593839422712;172.70613501573973;100.04838073349021;0.142749385946391;0.19491198468810633
134858890;125.46750134848769;172.57852030527911;100.17569377555951;0.14274228856501375;0.19490785051229814
134858921;125.72441944449938;172.64914835029055;100.08912371264887;0.142766584695752;0.19490312071942884
134858953;125.99770821096114;172.73856214499142;99.914559575781041;0.14280376050909591;0.19489989654920203
134858984;126.18805399215488;172.49881420644576;100.05282081660305;0.14279214830725123;0.19489336443058039
134859015;126.14168794296367;172.53077746242673;100.3247193465844;0.14274283893767331;0.19488747830602812
134859062;126.37872243576433;172.82898651931873;100.23196014831845;0.14275315228431659;0.19488200913878206
134859093;126.54311765936956;172.54739954818263;100.36105756760846;0.14274167552549594;0.19487591972058849
134859125;127.33700395189615;172.68926255431938;99.280328326598337;0.14288435113740369;0.19486953211186375
134859156;127.43140683202203;172.232128681948;99.639828416097089;0.14283319750594276;0.19486270745419415
134859187;128.37070864436174;172.30483889271534;98.250938652856476;0.14298508857035655;0.19485089918307405
134859218;128.39324888593728;172.12858772383427;98.6143657561743;0.14292612356922169;0.19484246736533262
134859250;129.01799450219096;171.89763900654933;98.171798847224821;0.14299447837253188;0.1948332774304492
134859281;129.29181407850908;171.90551919135791;98.552723586807844;0.14295708063219381;0.19482204767295691
134859328;129.96815422068679;171.97875094907514;98.211151381480747;0.14299699106629996;0.19480577764669049
134859359;130.7252196444756;172.0328264731215;97.935236492274072;0.14302753733348558;0.19478664440864632
134859390;118.31165855700721;125.29349725376177;97.828467545405161;0.14303721510796202;0.19514994305766489
134859421;118.86583439523936;123.92678078190127;96.198963078491829;0.14316093467528923;0.19514282484112758
134859453;130.5784813761349;175.95422026070986;95.020296641380185;0.14324138180112533;0.1947002742313744
134859484;130.33716835638313;173.74774484461159;96.3944807927858;0.14310710856218079;0.19470845038294624
134859515;130.98649908749295;171.56037154061588;96.84262603800164;0.14308245836042108;0.19469435524623638
134859562;131.43601858718333;171.09798757384266;97.831165285854354;0.14299039434742289;0.19468596688167802
134859593;132.73288816427467;170.47481381509749;98.244618763976121;0.14294791509458832;0.19464719447903733
134859625;133.63797511191265;170.79307226596364;98.4826487805202;0.14292534732144058;0.19461519262126212
134859656;134.31881670269959;170.70589488053861;98.847418831517217;0.14288342609759583;0.19458747628144918
134859687;135.29728765522444;170.81054575048609;98.980748395957718;0.14287437204826772;0.19455162049113067
134859718;135.84970782536149;170.91938637777716;99.256818508677981;0.14285433988707508;0.19452823607368372
134859750;136.5318388243272;170.99052660373326;99.34432036445483;0.14284600905288031;0.19449916217393895
134859781;137.22133029194944;171.10309386863369;99.53385294281388;0.14282084716796481;0.19446577294899611
134859828;137.75235475684872;171.24419920121613;99.662789248236081;0.14279262679448346;0.19443746009819396
134859859;138.23767357060768;171.40235484493493;99.782239734610144;0.14278452348189627;0.19441471238700603
134859890;138.53593736598131;171.51989991071488;100.0113181495128;0.14276308444001612;0.1943960023682336
134859921;138.81843938580903;171.51747487317323;100.12997193748879;0.14274515489686668;0.19437836648610793
134859953;139.38733312300835;171.71816963854698;99.5317474974432;0.14279121648665061;0.19435784214001639
134859984;139.36080902025171;171.58492491742166;99.7755573884587;0.14274633122000432;0.19434954745863481
134860015;140.96664283158128;172.25780521501275;97.325293765418792;0.14296746858752293;0.1943133310961494
134860062;141.0409268232996;172.36863880989208;97.907947720492345;0.1429073366491046;0.19429901990374052
134860093;140.69665662421789;172.48742203560451;98.696434691758554;0.14282158550540133;0.19430322278039838
134860156;140.61576514244638;172.65168692076836;99.0583487213542;0.14278248936962332;0.19430283120429145
134860187;140.21284696952111;172.78328082636037;99.601653133294775;0.14270204755301902;0.1943033532610465
134860218;139.80207993973676;172.94910124877319;100.09262083587144;0.14263465674847467;0.19430556769023963
134860250;141.48020090444038;173.41593612459755;97.430015915064885;0.14286548712139263;0.19428554813634225
134860281;140.90161713884734;173.52389757101415;98.277906235696221;0.14277164084180277;0.19428875178082813
134860328;140.201357573215;173.61015777925888;98.9348507487629;0.14279865595587615;0.194453824770532
134860359;139.93185064502848;173.690299107048;99.326042887669715;0.14276022465835628;0.19445266214812626
134860390;139.82730643020298;173.29201501327671;99.52938471074313;0.14274614262148633;0.19445112065562317
134860421;139.60862843003821;172.83310373584126;99.756470497024864;0.142714300957714;0.1944516357113612
134860453;138.70337959474983;173.75447951817037;100.1651621454121;0.14266744063568743;0.19446646479259294
134860484;139.50503086964676;173.8020478241267;98.916691452127736;0.14278085584242234;0.19446460173712168
134860515;138.76480264330198;173.73696232151562;99.746407245217853;0.14271197602633581;0.19446765918617426
134860562;138.43156270655516;173.59476349841845;100.02099034928567;0.14268970041613913;0.19447445040612649
134860593;137.18296055078824;173.49502269271162;101.23927530014083;0.14255152474884469;0.1944803251406276
134860625;136.28701696346616;173.44789021872623;102.06050094220113;0.14245457273133452;0.19448641063915645
134860656;136.06526675621484;173.41176707937837;102.27398052123962;0.14244385100435722;0.19449112252412448
134860687;135.8648992577327;173.57852973754851;102.28371838568795;0.14243240043554131;0.19449588925903136
134860718;135.79108419681657;173.84786681752104;102.29285901065808;0.1424369520277555;0.19449842012013138
134860750;135.6833527680499;173.87516248312454;102.32354608657715;0.14243529272630826;0.19450231331752529
134860796;135.21042476521134;173.51805631564827;102.36019509937634;0.14242711445415487;0.19453679163576806
134860828;134.63312042030444;172.81088861160961;102.67284834069106;0.14238435755508924;0.19456034646585743
134860859;134.48733268002889;171.429420045599;102.76439982849998;0.14235448578256052;0.19456744683274194
134860890;137.9455209604875;173.31974878103958;98.890913754918373;0.14275409858223084;0.19456409352738119
134860921;137.00281642215413;172.74020609748837;100.16414472654948;0.14261846618066254;0.19456887162911571
134860953;139.41955474458189;172.76582295089233;97.295394200646442;0.1429247916529251;0.19454298557119282
134860984;140.8198708924088;173.07591551923213;95.309781435986878;0.14311450858711297;0.19451861780302157
134861015;141.99461312301762;173.13875023293824;93.5326351661559;0.14331330745697987;0.19448968599829447
134861062;141.74531498993807;173.68547779891782;93.000798429839776;0.14327540368248909;0.1944565789179333
134861093;130.84796464580862;154.76693389915607;96.586414887069765;0.14286048130766305;0.19486280172746273
134861125;139.31371015640946;173.10163093720618;94.823022171473767;0.14289236457093577;0.19441846641929125
134861156;138.21400446423996;173.99453897647658;96.6602131384773;0.14267444775185281;0.194433869813339
134861187;136.41746076299836;173.11313775927459;97.5085772616822;0.14249642185623412;0.19445552186880841
134861218;134.7031328682715;172.63535968214939;99.237734437951048;0.14229819436207197;0.19447427482464716
134861281;131.78802300375003;165.02028589175805;101.58949909354885;0.14189999519323837;0.19454862372606607
134861328;130.66882842513786;171.39338362198379;99.623505309600077;0.14204777556718193;0.19449766203337093
134861359;130.404043955932;172.10881617300458;98.552166157294636;0.1421131682947841;0.19448538194250595
134861390;129.08859037019855;171.66796800866473;100.26893134688454;0.14188887044281248;0.19450363039199331
134861421;129.42353659990249;171.6219031406074;97.433311900649542;0.14220833641941297;0.19449759481428836
134861453;128.30726629154097;171.476383950476;97.208614699493268;0.14215934321917417;0.19450398053820991
134861484;127.50664158726241;170.77328321506448;100.28786057690326;0.1418455321443082;0.19454404337019948
134861515;126.27585479013729;170.04441452342874;100.59854836648204;0.14177431689013523;0.19454966334440979
134861562;127.014820496496;170.06507720871608;95.764400367574268;0.14234327311109249;0.19449797154985679
134861593;126.91581021017426;169.66780635292258;96.735898424518922;0.14226876182483178;0.19451048707190002
134861625;126.90236866356608;169.58350841375702;94.252904140941553;0.14253778087063079;0.19447529023427379
134861656;126.91349607271089;169.25505671679076;95.364983806253889;0.14244137620226435;0.19448731520470355
134861687;126.28337802255736;169.67965814193329;97.403891354463426;0.14210913238576511;0.19451121774354033
134861718;125.96749614017793;169.46303276374925;99.9519356493637;0.14183844443880056;0.19454121182825282
134861750;126.60661115121181;169.32654101069136;96.181693669701616;0.14229761501151364;0.1945037331207079
134861781;126.91376444017691;169.16242691811758;93.2917637922794;0.14263743290814834;0.19446407207617697
134861812;126.81045308300659;168.89910733412117;92.922880442131955;0.14266271230669364;0.19444705255107914
134861859;79.465325141750341;179.86541077364683;94.578408515425238;0.14255712028588718;0.19511051420489312
134861890;78.192452200741741;179.82951608395408;95.911295763631529;0.14242116670777641;0.1951054126502956
134861921;77.669211718164632;179.614995781985;96.407582605340735;0.14238482354907273;0.19510085141364914
134861953;76.805169596741109;179.7459128917169;97.300548870415042;0.1423052860208763;0.19509477850046836
134861984;80.59712804802119;179.9306926447272;93.1887463920766;0.1427218936031695;0.19511086271381514
134862015;81.849103540824373;179.29492311069791;91.856392281793063;0.14284085051755996;0.19511862275583194
134862062;82.7823018624616;179.64059290908094;91.134008404673949;0.14288249434434253;0.19513168723333524
134862093;79.722697156677768;179.01926656166694;94.19080326942121;0.14260509209376301;0.19511014787408521
134862125;77.962720958161427;179.38126911435916;96.13840050954353;0.14236133967468923;0.195108946592962
134862156;80.8622832247135;179.54778694110257;92.984579578981311;0.14268694585681141;0.19512294325764656
134862187;79.235912923262589;178.96658615332515;94.712238653999364;0.14250507196846268;0.19511668371500673
134862218;78.774814153022476;178.93419469707553;95.185371239075266;0.14247029150660306;0.19511415585514619
134862250;81.02808858159338;178.23541311647171;92.781484820250043;0.14266290053186786;0.19513274733756414
134862296;79.956713516941491;178.64888411339763;94.086496853802544;0.14253474073599406;0.19513669172649775
134862328;81.726880360769684;178.44650485961111;92.057823541653249;0.14277142577271915;0.19514234204736031
134862359;84.202202082227615;179.09525505717886;89.867609502046562;0.14296711991240213;0.19516967650523831
134862390;85.23290931220636;178.3583894688164;88.686244577951044;0.14304408208566596;0.19518101623358461
134862421;86.8783248431284;177.89751125565775;87.056439137012973;0.14321447292023243;0.19519369591173649
134862453;84.2263082444444;177.81674613291477;89.904809271617268;0.1430064398802873;0.19517451565675448
134862484;82.683108491950918;178.10777402532904;91.618263240262678;0.14281793997884493;0.19517279460913975
134862515;87.06601287277158;178.17155750663957;87.073285507780113;0.14328367484738219;0.19520255456516214
134862562;83.453389371306471;177.99503083178314;91.001126476117435;0.14292675118836884;0.19516710483488942
134862593;82.879629861340362;178.14451423453662;91.638174564266762;0.14286206575224097;0.19517233219387928
134862625;83.721234214515476;177.4976587446379;90.7739747140435;0.14292418283683789;0.19517600080098455
134862656;84.189337565212881;177.80093918666236;90.830658866156142;0.14289921806684222;0.19518570329218241
134862687;28.855740481789823;176.07683215833069;89.669343401665842;0.14319899356205976;0.14157034221748074
134862718;30.208896434287936;175.05690507043451;89.090889030790066;0.14344029572384984;0.14178676284523789
134862750;31.174538077139076;171.12464120283576;89.083894631426858;0.1436362101943397;0.14201979439610843
134862781;31.967886406722332;171.03953090302389;89.221779000533132;0.14380701988992711;0.14225527031759708
134862828;32.225187026117709;169.69775664058935;88.781179254356047;0.14401104055024006;0.1424149090442382
134862859;32.655224601152391;168.64124136416342;88.514591267169124;0.14419496310630245;0.14261404985519388
134862890;30.803946408323188;170.72829741668554;91.126326644341589;0.14409726098371264;0.142892709434878
134862921;30.909957993549057;170.13886305720132;90.016018950174171;0.14436688106493351;0.14300982894784367
134862953;31.492053112435734;169.98127165318971;89.117605795007151;0.14460232903106257;0.14314292246354171
134862984;31.499269477098913;172.3944124926231;88.180642526813472;0.14465400535109596;0.14310989194607951
134863015;30.514384579360915;169.41073544335006;91.277983449071741;0.14432127565452149;0.14329572174313074
134863062;30.700755906615345;169.27091310515527;90.158926582835662;0.14441610734948149;0.143235461220483
134863093;30.895968341291809;170.9229589504923;89.539549321412579;0.1444823347352279;0.14319819539584738
134863125;31.703189698673196;169.32124195321711;88.8477692149138;0.14454872076506206;0.14318642676825372
134863156;31.60736354591117;171.16593765568223;88.23801762984688;0.144603456820872;0.14314412851683106
134863187;31.588488273010174;171.95567559837278;87.7181939837678;0.14465797632620939;0.14310105066524867
134863218;31.489930350916147;171.10806079265035;87.113673149202668;0.14471144671044975;0.14306294627556404
134863250;31.399222721479671;172.33332378945664;86.437511493886575;0.14475261155913502;0.14302611810464794
134863281;31.342517387969757;174.33311441929089;85.7627084318819;0.1448390980067448;0.14296061237258315
134863328;31.292336240133359;171.6145363198298;85.056063088339755;0.14491841967660932;0.14289794257618588
134863359;31.159306442905653;172.88080132190194;84.5507943406429;0.14498134707729321;0.14284203508616952
134863390;31.107472441242702;170.77016367215671;84.156208428667611;0.14501671012867112;0.14281120622548651
134863421;31.057373263203313;173.6302233331671;83.511831451419368;0.14505996645868249;0.14277235093830409
134863453;31.141289276703755;174.79266869878498;83.1336592356056;0.14506572645465685;0.14276649312502376
134863484;31.118941014902738;169.23241362024027;82.347647462185918;0.14513556444957509;0.14270656189794581
134863515;29.16409484343172;172.02180328827205;87.725733157890375;0.14455506420551637;0.14304108484205028
134863562;29.473297781925904;173.87171119712153;84.155140090186336;0.14497376632973055;0.14275345527572839
134863593;28.274537354757548;171.05758783411955;86.909464878794779;0.14466825143115694;0.14291160632840244
134863625;27.829347878967081;175.57532005267527;88.6556351961328;0.144395007012292;0.1430698317673457
134863687;28.693159841206207;177.64048810793702;84.954245352361767;0.14502433918885394;0.14303424025757405
134863718;27.29651507108624;175.36524462499989;88.759654594258819;0.14461610223608329;0.14325876974645638
134863750;26.623072419709491;151.90010772113348;101.42546971555208;0.142329422293264;0.14476871720552095
134863781;26.726462796155012;142.85634359728343;104.6906218210095;0.14176440684247565;0.14522629370842813
134863828;26.906792637929378;138.41714456205821;108.66356948548457;0.14101485823167084;0.14574755166699102
134863859;27.055937503828723;133.01357360637849;110.65419149608009;0.14068022055512738;0.14605691931282289
134863890;27.814408864348888;131.68072920425303;112.97276317916769;0.14037838714464854;0.14624933615517136
134863921;28.127507583866414;130.9752431911347;114.72576845132893;0.14005564383390393;0.1464387877518932
134863953;28.397648361356616;130.17407186442588;115.41906566530372;0.13995733061922788;0.14654611760593861
134863984;28.730915706289736;129.51036727414402;116.00841325039647;0.13988999052744158;0.14663462318886936
134864062;28.938805744873246;129.33356891193861;115.87366127001204;0.13992484037658029;0.14661153326405632
134864125;29.167701532155018;128.25236926758916;114.93472957441648;0.14012421888638579;0.14671951116595794
134864156;29.133320049744345;125.13849094665672;114.83617388511868;0.14011867323140781;0.14675912823449161
134864187;29.001402196426866;124.15589584603764;114.79058176387144;0.14009496807031388;0.1468011448764372
134864218;29.231935783538326;124.72643144994484;114.05931906964709;0.140331606952898;0.14666190790839523
134864250;29.202704177134038;122.800966900846;114.14492947419497;0.140286583987552;0.14672164478062341
134864281;29.224490605482313;124.7150259799775;113.50570104968544;0.14052917866574649;0.14666844965365466
134864328;29.12612502217566;125.71645074395443;112.95646980384917;0.1406261595792197;0.14667296485856754
134864359;29.353647838715734;125.70823920658644;112.57036443487171;0.14066161022021709;0.14669784943702288
134864390;29.270618685925061;128.90656292714581;111.63303073666174;0.14090233345346565;0.14653341071439696
134864421;29.328906281553554;127.18165672029532;111.84951872578139;0.14085582553436116;0.14658298571089864
134864453;29.487246731485282;125.8519272381095;111.56533971650099;0.14099777967440216;0.14663763321846454
134864484;29.835614269158555;124.03175576563989;111.22302698558664;0.14109080558088047;0.1467160216428815
134864515;29.787084983320202;125.94589563917641;111.25588085225888;0.14116249115789473;0.14676713526179905
134864562;29.825367234203831;125.1205054559538;111.0150897540825;0.1412902192450668;0.14680262180604059
134864593;29.678189074449719;126.95932538787612;110.5019124957269;0.14143763398093698;0.14681570089308163
134864625;29.62433487518943;129.57139836145035;110.20173356260888;0.14156585730384019;0.14684227592072824
134864656;10.15997389754272;125.08011155438076;88.1050284351309;0.14447216055961948;0.14430479111239716
134864687;10.243341616831449;126.67600579042225;88.051530423156521;0.14449766297256408;0.14429610109009994
134864718;10.243651180159874;127.08357416360764;88.193294940671223;0.14451410644446461;0.144290076696285
134864750;9.7786072876917949;126.91917342067666;87.63402031051379;0.14458730438358822;0.14419285910651675
134864828;10.060043212753346;136.95200988363305;87.038127654505331;0.14508368363976815;0.1438989383821935
134864859;10.200963811086343;140.25058038021737;86.654191803691461;0.14521280912990764;0.14381920569731257
134864890;10.352727943395678;141.50739300447606;86.355349309325717;0.1453318440943423;0.1437473327609165
134864921;10.344391151685429;144.54856160587232;85.852118758654555;0.14546901298228512;0.14363818675042028
134864953;10.336132794660273;146.71188889002133;85.462470464629718;0.14554335665125948;0.14358118398603098
134864984;10.365663695336108;146.42080762179427;85.147339140962885;0.14559698665141158;0.14354187921204623
134865015;12.477369015266023;167.18622747147236;79.642962685255327;0.14683907661515691;0.14283403579605825
134865062;12.165747063235052;166.17860027567454;80.016070324269521;0.14675184929338106;0.14286962781180077
134865093;12.82112123143145;171.35563481162015;78.130392573734738;0.14711332333621871;0.14265522820066665
134865125;12.199696943677385;167.78200619952781;79.402376293137777;0.14681918585585471;0.14282508560162868
134865156;12.037791450818805;164.06307764443451;79.984427520634327;0.14656653803318603;0.1427861213466313
134865187;11.906171947762413;161.64537900773783;80.270696091341946;0.14635509705423414;0.14270215039397574
134865218;11.863052824971236;160.63702485190316;80.4903558505883;0.14644545864683245;0.14286503916265375
134865250;11.880788863784634;161.25543755496958;80.572249733855415;0.14642842411516202;0.1428783541088727
134865281;11.839203354091499;160.7111653255665;80.763401207619751;0.14640435072405056;0.14288681451922136
134865328;11.861537624417672;159.9703055524391;80.856035611373187;0.14626501657928154;0.14276750162960636
134865359;11.832943388849929;157.18574205012644;81.176283706963829;0.14618351952288455;0.14273914759553746
134865390;11.916409224807756;160.59160889382451;81.134116279037727;0.14620407134904057;0.14274612931795253
134865421;26.471659988391952;154.254186786121;101.48094432001192;0.14391589986036074;0.14520680751857207
134865453;28.132241279886188;157.60149509406455;99.196934912181916;0.14412080825921073;0.14514703207579055
134865484;28.916908186268973;162.48599052991469;96.072656554826736;0.14449604615288089;0.14494780128908466
134865515;29.313305274082598;161.64979656996269;94.629741706375;0.14477412713929067;0.14499297428992264
134865562;29.479802727170387;163.94429288500106;93.5115748393559;0.14488131372345786;0.14492754676358843
134865593;29.11242192618267;166.462275697383;92.726003691506165;0.14510291616835858;0.14493425349523204
134865625;28.939434198086939;164.91841606905066;93.022438380813767;0.14516161741874772;0.14505949941910434
134865656;28.246633866842824;156.97407185330843;97.56638393217348;0.14466699632652019;0.1455004212661167
134865687;27.997360038527852;156.50469960797744;99.75699738833616;0.14447453343864572;0.14574969086766865
134865718;27.25820063091826;156.82895090093442;100.79500657111774;0.14443084786566915;0.14588492588046659
134865750;26.949332763469428;153.58680333924124;101.63906721185212;0.14439686769000418;0.14603382572366558
134865781;26.182017990074041;156.0471335857994;102.30367825324989;0.14439456345682725;0.14611707012230196
134865828;25.511844611694855;160.11681895781607;101.45900125975447;0.14464289233634411;0.14604892117831533
134865859;25.230865139317746;159.96900434308165;101.42932260208035;0.14474637505060198;0.14610093730041027
134865890;25.094804207637225;159.26732535757657;101.46187175183071;0.14483287336682305;0.14616062669519997
134865921;24.807066566733344;161.10971112446654;101.18818975295687;0.14497191401984355;0.14618238734021546
134865953;24.539804491073074;164.5449767677018;100.65515264204505;0.14515315956173874;0.14616633789032771
134865984;24.244162189833773;163.22331414117548;100.12770628670366;0.14531148413942083;0.14617441388637856
134866015;21.671823926487555;173.55634784800324;96.099936586220181;0.14591587173776111;0.14578921623652116
134866062;21.562926679150042;174.12359536275994;96.080938169721037;0.14600008269918441;0.14583335889515134
134866125;19.940606060460862;175.15109693861243;94.117761335234078;0.1463090004754134;0.14563136798557153
134866156;18.109835285620679;179.10312369501818;91.751835764209275;0.14667132721536685;0.14535788902863561
134866187;17.504887054170535;176.85813110953649;91.194553834495267;0.14678227762969154;0.14535549854097143
134866218;16.289828009888158;177.91125671992174;89.8684780423189;0.14699365438069714;0.14523825559765383
134866250;13.949364134183387;177.65129473689464;87.215637338889636;0.1473690531047146;0.14490730075343744
134866328;15.901072299921388;176.04876477009273;88.6029099262663;0.14712997871786682;0.14525932283874993
134866359;17.148975842442894;173.78890931926412;86.303723827464736;0.14736694981317633;0.14515839932606039
134866390;119.15951127436551;151.74896971417812;78.888556345778;0.14792873773763449;0.20123738179786835
134866421;115.36517199839678;152.24378059279093;82.98972828084031;0.14754667665785437;0.20123718305930693
134866453;114.03409823599584;150.92759879148088;84.365602888036349;0.147421751610473;0.20123958189472938
134866484;113.18672393859224;150.5414658693436;85.198753035498967;0.14735147178777303;0.20124231611470561
134866515;113.42229415689222;152.72571887309272;83.525287724186711;0.14755842026076568;0.20125816666940993
134866562;113.04489539584252;153.11199940288765;83.738741996010489;0.14759726641104992;0.2012590494024033
134866593;113.14229695191254;152.89091632720536;84.122087888592716;0.14765862978146538;0.20125844711888297
134866625;112.03087233233653;148.57170949131489;85.855394577632268;0.14756870165926231;0.20125008322690058
134866656;112.30656173755146;151.7440172816155;85.313158420099754;0.14768763031554852;0.2012521952017963
134866687;111.75370619966645;153.12925854021538;85.607917794174526;0.147713666079857;0.20125760008177171
134866718;111.87129164072219;152.64628503188195;85.682319815362192;0.14776505551937788;0.20125446089114829
134866750;112.71486124787506;151.56124528136758;84.86145097903632;0.14787081583519696;0.20124845411957079
134866781;112.27676486017994;151.41889581170653;85.060003774347237;0.14784179754417789;0.20124744329105038
134866812;112.2514564035334;151.59197681926446;84.867001726404169;0.14788051990208032;0.20124916187835096
134866859;116.36783256802993;150.99826082616747;80.716697683766583;0.14807668511068023;0.2012327868662161
134866890;113.23853579047041;151.27198788163173;83.990656815053271;0.14781393072904431;0.20123743090307406
134866921;111.21180555577935;151.25145406578199;85.8215306645939;0.14765132503885561;0.2012392940728383
134866953;96.779989251053948;175.05219763866325;81.8879588734404;0.14795263846595269;0.20138504727632167
134866984;170.73632600518815;165.83795339712654;26.852007300128335;0.17932891950051719;0.20127817278670809
134867015;155.99249685852982;172.82971993583573;37.47714783818023;0.20430620417436643;0.201364899265165
134867062;162.88235993319427;144.10522292687222;27.267977071293341;0.20468383758050604;0.20105908556724139
134867093;162.70146920883875;143.45846635061363;28.538641323408427;0.20468647310668536;0.20105298894240659
134867125;162.62771760812058;143.43333595124943;28.880802569422556;0.20469140614035516;0.20105806423823766
134867156;162.39360844055844;142.44821343141669;29.061610089098096;0.2046930419672883;0.20105514033208366
134867187;162.36110863289071;142.51081802762437;29.17131185013077;0.20469507414725882;0.2010576044455151
134867218;155.3288332514837;172.15007872952597;38.043467751860746;0.20428437524071194;0.20137330254493843
134867250;155.29155849364597;172.17216936147628;38.023683306372959;0.20428333788781702;0.20137402141322586
134867296;146.07543055634284;169.15735172206144;33.401284755416711;0.20419832125226875;0.20129598910732702
134867328;169.68605975501271;165.06272151955474;28.467081940246878;0.17949945962956371;0.20144536206200472
134867359;145.52963230863085;172.2359610097829;33.531884193808594;0.20455044815585105;0.20166149260695296
134867390;140.44051311676728;171.51946703439191;37.125923164841552;0.20456674238585762;0.20164960280850722
134867421;169.52984662510596;164.15839698780084;27.870826740104711;0.179769826172791;0.201763146368811
134867453;148.62370631160982;169.15283576951461;34.706580516125442;0.20476876331289326;0.2017924889984169
134867484;155.75838821747541;166.82715977651228;28.972408985809739;0.20497454967107967;0.20177277226291249
134867515;149.5107079995752;171.28894980759142;37.880096337520982;0.20483981842556709;0.20193742258045233
134867562;149.54354485884804;171.37632433958567;38.243884980847646;0.20489771255083172;0.20199682962918511
134867593;150.50719134317271;168.99561561480809;32.940095141074345;0.20491404406087138;0.20191165309756834
134867625;155.56235769210565;166.90954847735827;29.014410980665467;0.20509168921835044;0.2018830781919661
134867656;155.57561858560496;166.84927418147635;29.214718279337955;0.20510225630868825;0.20188087399203269
134867687;154.25319510594423;163.37600868458904;22.124306454996194;0.20521465628938904;0.2018078218650593
134867718;155.430829860189;167.17413022082044;28.747215470550866;0.20508179148497263;0.20188689013868119
134867750;155.44428976136422;167.33278124453545;28.588110229827734;0.20507621974107737;0.20188791249967863
134867781;155.4270957494868;167.16237538279356;28.509115262495619;0.2050731958954122;0.20188826592436698
134867828;155.49950223908132;166.67925627981978;29.133175166891334;0.20509757215910746;0.20188220735016646
134867859;155.66121193792989;166.67370119250148;29.135167823195246;0.20509974394794367;0.20188158613746615
134867890;155.59768593596812;167.07475517451172;28.764851496617997;0.2050838619298149;0.20188616952228139
134867921;155.52490843017276;167.22901879656186;29.080915393198527;0.20507698315930384;0.20188828911701826
134867953;155.69323477692194;167.56293390983572;29.40049618580727;0.20509515121845076;0.2018848977010714
134867984;155.63423803666166;167.57446468325227;28.975703664346167;0.20508117231295331;0.20189167287974255
134868015;155.61174182321733;168.59208260485747;28.817660513797939;0.20507605783768473;0.201894820177305
134868093;149.14699761161668;175.58154428455873;32.999334175712846;0.20497632491305567;0.20201681197893442
134868125;154.75792923845489;175.5067604808894;29.299226941432149;0.20521936023689519;0.20206679929739418
134868156;155.68122837281621;170.59211080533697;29.33838170402613;0.2052851570641222;0.20210090770624378
134868187;149.58755190652985;175.43424300052854;33.041325482107247;0.2052235314881399;0.20223379784349674
134868218;155.22095986540504;175.61450166644752;29.208870908133331;0.20548541571928522;0.20231642025645363
134868265;149.373299731469;175.5999213203915;33.121584646297457;0.20542527011898176;0.2024506026832906
134868296;149.13195293856654;175.3573025368072;33.549553896219507;0.20544477674046241;0.20244596971917594
134868328;152.64314218610002;174.65897731655943;29.527497559307115;0.20555178011733222;0.20245190958653697
134868359;148.49907854065194;174.10498679785354;33.693852022325366;0.20543601212628379;0.20245361938740925
134868390;152.93293463575157;175.32278776707418;29.56955038031267;0.20554897632378186;0.20245273132861694
134868421;153.34919396899252;174.86592194917606;29.176921877241067;0.20555017394922354;0.2024542862770729
134868453;154.89311906802092;175.17988079581005;23.121038269399321;0.20568666354800574;0.20241074181287674
134868484;154.80319621910763;175.1087023873896;23.315156304917991;0.20569290985055758;0.20240681600765495
134868515;154.94724550370589;175.23159404133662;29.061801815434283;0.20571069132506115;0.20253755353924385
134868546;139.2122590466135;133.25492872466086;29.42060331756932;0.20571453086258312;0.19147226489392855
134868593;139.31470753975046;132.7004235677272;29.725137987065349;0.20571328529419472;0.1930177897195437
134868625;138.86254737082933;130.98976738999184;29.609248762437726;0.2057170718808749;0.19279374722630729
134868656;138.89588967299864;130.51614517270349;29.472907485196028;0.2057180883539195;0.19274288793806635
134868687;139.78386926877403;128.33388245206814;28.339820497921984;0.20572302907561113;0.19534775961488765
134868718;166.63476886976449;149.7011725091036;30.418372704441616;0.2054832872331632;0.2017620725717254
134868750;167.47563093043488;164.31755295125376;35.622228713540359;0.20530206434512266;0.18584240344818928
134868781;167.5109205437694;164.76187059523886;35.62161387466648;0.20530364975671198;0.18545278981805596
134868812;167.65771915087987;164.8459920376304;35.69977549588922;0.20530454079907776;0.18422824611212102
134868859;167.7224538868698;165.52327745248206;36.112284172335279;0.20530585533557733;0.18318195604429122
134868890;167.91549638897857;167.08990542163724;36.083010497202274;0.20530584013034667;0.18286891544574252
134868921;168.26122670440049;168.59637053067371;36.037638827817339;0.20530695779237693;0.18273809046796824
134868953;169.8395074655987;178.05760628070121;34.711731213565983;0.20536937777928419;0.18408801667156119
134868984;169.93659201118354;174.9413553961034;34.656179020102023;0.20536519150614832;0.18478427722052759
134869015;165.05482003480748;158.28927341445052;34.9250355215252;0.20529936944071617;0.20154159946360797
134869062;164.40228152167114;169.25619558343635;35.864043108247515;0.20520614860036535;0.20132126411632925
134869093;165.53710933472942;151.27148156191871;36.092733612949985;0.20522712831907439;0.2013859812835139
134869125;168.780017049296;174.2523066790005;37.493528750092658;0.20560424150003959;0.20249328002520434
134869156;168.99540086350743;175.48348572116575;37.011089317062556;0.20560910190712278;0.20249713153923654
134869187;169.24827402940969;176.12947501178681;36.763198145130595;0.20561780733869189;0.20249992665389022
134869218;169.91036838285567;176.5018796702968;36.397759388766445;0.20563167454465811;0.20250696754488881
134869250;170.86419412230171;176.48827365091111;35.933522214610953;0.20564750711091848;0.20250687013356897
134869281;172.55632262660478;174.80002621026327;35.740645039001379;0.20579136451425606;0.20263470955479862
134869328;171.622963575492;175.50689342378678;34.944352673740575;0.20589210219729554;0.20274569313041635
134869359;160.469788978841;156.89171198029854;31.780540426697581;0.20554535711457267;0.20276714125755271
134869390;160.16955921880006;157.73718955869708;31.780427925239874;0.20554610703298726;0.20277153879180337
134869421;164.82048779743928;173.32366996550641;34.272672060141353;0.20590840030532046;0.20281884823875124
134869453;165.74399274758406;172.42793386818491;33.81422475807171;0.20595934556871565;0.20285054535148564
134869484;144.48223155951985;172.0767265074827;32.5167717984095;0.20556296472241836;0.20281497341231594
134869515;144.18144594151687;170.6461701552152;32.589160531672448;0.205553031577788;0.2028143290734313
134869562;151.84477803065772;174.45712061049471;32.263179499929777;0.20554843054485028;0.20276166849177624
134869593;155.47038204452991;170.37759637555556;32.344549531458206;0.20552763856657233;0.20277926078217687
134869625;163.63787400819581;147.45639780582204;32.136927800929328;0.20553635066447418;0.20237090369868377
134869656;155.9795937578574;170.99404049850165;31.983384987232444;0.20564083609504277;0.20287521840390263
134869687;156.43411455843994;173.0784650137598;31.650304017547771;0.20562463529360225;0.20283340599492056
134869718;163.8540266089837;146.66303685203218;31.678621375218825;0.20561683724388832;0.20230360063998848
134869750;157.47866160369733;172.96679686465217;31.362188924058035;0.20560046451617581;0.2028051525233264
134869796;158.64926917182933;173.93360168217643;30.979406351409239;0.20566077578592859;0.20281242324386231
134869828;167.20664042723462;147.28819964637438;29.581544445212614;0.20573992820097178;0.20237692620738743
134869859;160.9755844867309;174.74174096117073;28.956191351940763;0.20577813299888756;0.20285424197450871
134869890;168.14666169403037;143.6502902684592;29.027050906161264;0.20578199419772469;0.20232533959677232
134869921;143.9089070095055;107.77430358246028;133.98239286332617;0.14959000596056166;0.17143318634252253
134869953;149.40911113539104;105.93928108136754;127.28517086695959;0.15018850094941874;0.16877437048932778
134869984;151.13644112760969;104.30099165653799;124.68643498573256;0.15044397722684358;0.16862126252209961
134870015;155.40609203279652;102.68822346604782;124.22878780881058;0.1509531008315948;0.16676418814425073
134870062;160.01290498115603;97.443901753288742;124.66685832917217;0.15131487118777715;0.16261972532682661
134870093;112.71322422801129;159.98595613018748;128.08741858193383;0.15125505408416642;0.16787684978297315
134870125;126.23757416536998;139.5919388803745;133.93699100801786;0.15071319252598217;0.20292039884160334
134870156;124.01727727695251;123.91736369151695;124.42946671226225;0.18212194082080654;0.17994938210150202
134870187;123.20897792807455;125.3330162827685;128.46224349769403;0.18120647864559189;0.17707213514363596
134870218;127.80823717337449;123.79225423974845;131.60043765864018;0.16672802896688521;0.17527805866227428
134870250;130.48707173489567;123.17951356263713;135.11080546743878;0.1688161512078393;0.15701211279707003
134870281;124.3764569404281;124.4734886629271;148.04680887268395;0.17858022124653478;0.16553324131843122
134870328;97.447038478027366;177.7060619903674;151.12865371385226;0.16632712883040121;0.1919380348629974
134870359;109.76759070573516;143.9531971196223;150.56599436430969;0.17706468337120526;0.20138733328946437
134870390;108.90728224683153;149.85839979622776;153.22205258267053;0.17910556177226958;0.20237803384183359
134870421;108.76607181571619;154.75613189452162;151.31582731663082;0.18896493944595441;0.20231849267774527
134870453;110.33328696246953;159.08286866478107;147.71138720965448;0.19746322555783102;0.2023688794114637
134870484;112.54509265449117;164.86809716821813;148.50420928570856;0.19905881951282226;0.20245621159182362
134870515;143.49602884824142;175.21822238752864;150.66579269817558;0.17848727346834806;0.20217283012536982
134870546;145.25411551564787;174.57455996968187;150.30157137523415;0.18322520800480152;0.20206718304822433
134870593;145.96362865253377;172.0626281959434;150.20188659033167;0.18818576640188278;0.20200094401479543
134870625;146.54214368403274;170.10326035274611;155.17126744904448;0.18724371342558657;0.20203177750006413
134870656;148.21719163462171;169.96992479293647;146.25632325984074;0.19812653222518661;0.20194775778711557
134870687;154.35886946884739;178.37800790696724;147.59461435342718;0.19901303028201681;0.20154018872221013
134870718;153.03562561231;173.834307472015;147.18284248908151;0.19992320502610578;0.20064825680700155
134870750;152.88933944335466;171.53593456419085;148.87534033363784;0.2000140202041249;0.20078212877582569
134870781;156.70615425610382;149.03996926876098;147.83228897688991;0.20176606571533357;0.2013646576763635
134870828;157.56525618285156;147.2470638302199;146.8919654944915;0.20176714455604433;0.20131417669402973
134870859;164.77641281590115;149.3608144617821;147.2449548943853;0.20173562903502612;0.16939447328085314
134870890;158.22994945276582;160.49469571674069;144.47851216476761;0.20007110619761057;0.20041361144978528
134870921;158.55909307244713;163.48766818802008;144.4396576320942;0.20015558590916119;0.20044619120690638
134870953;159.22609084156909;165.35561181454611;144.57369049275525;0.20019837208473953;0.20043082706620241
134870984;159.42098357208468;167.70023478761917;146.06199601840569;0.19999396390514884;0.20030831986031519
134871015;159.98482363525955;170.43038697516639;145.38460078665824;0.20015648809113124;0.20033581451786037
134871046;160.16469016549195;173.53629546740362;145.89512600852882;0.20019480008438703;0.20033326266312446
134871093;161.26269845258523;169.08284042084202;146.43763155595471;0.20014201891831807;0.2002454326139185
134871125;162.97412520657665;173.67721536215512;145.60873559065504;0.20029342665088451;0.20008702466468015
134871156;162.82636471736046;176.25960906425215;146.33896738906887;0.20021153697480776;0.20010631584803504
134871187;163.4397631961013;175.49362122340313;145.13435736254797;0.20035886609951872;0.20013045291516593
134871218;156.09552916386849;173.5741605897218;143.54795045271305;0.26741446222363363;0.19929976325109827
134871250;156.22087850220015;173.34928425042762;142.16302932296873;0.2650933926493616;0.19851001896860818
134871281;156.2802560946358;173.01218598321378;141.97751761619975;0.26461250120121949;0.19805771681249831
134871328;156.37347561404417;172.63623784487677;141.95942505892265;0.26475755886460683;0.19755920407970834
134871359;156.79859485872669;176.59341007599156;142.71913465730881;0.266621220116711;0.24619411054614546
134871390;158.46417170186058;174.74706038456731;143.04362666721181;0.2669047673679471;0.19769922410842047
134871421;158.56433972420456;174.19530145738762;143.05807758257734;0.2671338713330505;0.19787344451194555
134871453;154.24620591197927;176.4127315293095;140.705952007386;0.26384476069598728;0.26403142668607005
134871484;154.09766506695181;177.0012704170901;140.23363644835609;0.26466092867191815;0.26487345484742508
134871515;154.17696107991543;176.62027994288593;139.98921878508338;0.26463277211712327;0.26514662290574209
134871562;154.21151653481113;177.12166976177039;139.80345881492016;0.26385523032237035;0.26541238954306834
134871593;154.43803000656843;174.98609735063047;139.22671254060873;0.25977502173852007;0.2651162723106813
134871625;155.44012838349448;174.17862105190457;138.67252290372881;0.254111169856466;0.26439026867232307
134871656;154.69681520192543;173.28501294484227;138.22388537844461;0.25414489890104947;0.26385958033994589
134871687;154.52077348385285;173.03146049077691;137.8033182147351;0.2539065134627;0.26346446086686459
134871718;154.18244032715646;172.39119938937691;136.81256584457759;0.25011223459191961;0.26171437346441878
134871750;154.27957294932628;170.41114103224422;136.16321188129081;0.24649681593611225;0.26107567334488252
134871796;154.15098307101016;169.72705255641913;135.21015181220068;0.24568040476251851;0.26081500954773107
134871828;153.56145487032435;169.41432099656527;135.21406124960075;0.24555826362448813;0.2609295823644916
134871859;153.28218637429714;170.14935267619489;134.3627572914281;0.24499757935706948;0.2610437707972933
134871890;153.29599779421727;170.52690890725467;133.91573945520389;0.24411275119346526;0.26108259342570672
134871921;152.13293501164736;175.70448702827216;133.70909529646931;0.24386635920104147;0.24515334873579106
134871953;152.91273672958781;176.70750890451609;133.1790720337716;0.2434175055482756;0.24594481895122719
134871984;153.21691873628711;174.40193965328135;132.90252072755675;0.24277494263020422;0.24689047487923296
134872015;153.29060413774542;174.07956174255628;132.58347554411756;0.24266358340678371;0.2471766016950343
134872046;153.45496201720115;173.51822705800095;132.31236200076987;0.24257167959015374;0.24839511746948709
134872093;153.46094560125641;174.17883077075749;132.16260391977673;0.242487390719809;0.24824863479675979
134872125;153.43744684821255;175.06302661844731;132.06326510890622;0.24300469273132633;0.24683830996046638
134872156;153.37400475983287;176.62733734087146;132.01457781601658;0.24164474302490013;0.24739835267116125
134872187;153.33230833844058;177.56186307579179;131.91487399011038;0.24207811514347949;0.24608460503141585
134872218;153.10287318240415;177.56111480286305;131.54402166951968;0.24049469991070038;0.24640522093867345
134872250;153.03193763088896;175.95432732490761;131.21152159469324;0.23883050914351445;0.246774268757404
134872296;153.35389074759453;175.74506387192386;131.52531909644657;0.24214255423379094;0.24448956636547378
134872312;153.47489681278941;175.177315287885;131.31129794038472;0.24259934729911428;0.2433073704821162
134872359;153.56929929417763;175.08229964702576;130.89868200801519;0.24197440353851524;0.24347374712494715
134872390;153.77958462326836;174.40231872290352;130.7701775751479;0.24224044894302832;0.24242008492124778
134872421;153.8961191845622;173.740726388046;130.62398704765604;0.2417013706364147;0.24263007838730921
134872453;153.2366837883622;172.94751904820461;129.86706554869102;0.24144131047227385;0.2595764610906201
134872484;153.18989497998558;174.60367636425082;130.35500402923663;0.24454467076725447;0.25961238250241381
134872515;153.18062427764832;174.81764126415476;131.30189796632433;0.24828161678335081;0.259870663686867
134872562;153.60636445388096;175.43568346645347;130.04205528328498;0.24810521844992278;0.26008929960951976
134872593;153.69435219923935;175.09861632284529;129.55951194177706;0.24799171210887241;0.26022890397754983
134872625;153.82017484902423;175.50412111005579;129.38458227698376;0.24867334682903122;0.26035028288636974
134872656;153.92710343618532;175.28172423897289;129.57927032676116;0.24931087327461132;0.26046103294121642
134872687;154.04302381637785;175.43098592343412;129.43525927666838;0.25001170590970612;0.26059378932700172
134872750;154.07822665616283;174.18757109638489;129.5495511841377;0.24888081751856167;0.26074441959538708
134872781;154.08324233514716;174.30562283112337;129.73884008549385;0.24768941080410828;0.26080107263862506
134872828;154.13357037843707;173.9235378596515;130.33766675612057;0.24739285471853889;0.2608790799379489
134872859;153.92187628506667;174.62837754933932;130.6695980277876;0.24578259656769314;0.25440550281222335
134872890;153.87416585498193;173.25176704135583;130.65044462014836;0.24546912971680415;0.25730406807478795
134872921;153.85972038177596;173.35308534117476;131.2456072700605;0.24555100168159411;0.25881800597410493
134872953;153.67782327669775;173.04947992982622;130.93150501600223;0.24469698433758116;0.26032053153427476
134872984;153.45556066657193;172.13824418054963;130.54766749040758;0.24409698495764762;0.26111605184767939
134873015;153.36306762374122;171.20494987138295;130.3580803846202;0.24408940148322522;0.26114581045797186
134873062;153.23201884592234;170.50463345454077;130.08635451236134;0.2434632538935009;0.26115378526742045
134873093;153.21468489178039;170.88819960947473;129.89663954887755;0.24345263355309807;0.261189206153198
134873125;153.20359897812426;169.36923079600891;129.85614099744066;0.24300409742528756;0.26118763029528397
134873156;153.34447718683765;169.88592345392959;129.62276103597105;0.24287134379411274;0.26114835130056957
134873187;153.16557471761064;169.98883767266779;129.53939597186388;0.24238239379436469;0.26116399437229776
134873218;152.89997415410775;170.088295699064;129.39779828084534;0.24220717113327589;0.26119517329021263
134873250;152.67043063057363;170.40567829585319;129.31343375271302;0.24236881183371864;0.26121232944160611
134873296;152.82738600070675;170.85325666611345;129.16623635661244;0.24176130978223434;0.26121235820439892
134873328;152.92564036533881;170.68350939267756;128.91853713603129;0.24256776599527752;0.26120256506591372
134873359;152.79629861522182;170.85837767757022;128.75076179348187;0.24290637457110473;0.26120180432370266
134873390;152.44837559074557;171.3053379806617;128.87611235667561;0.24241282112372484;0.26119937945734145
134873421;152.66259934346311;171.28160373499935;128.71042526151427;0.2422541102482616;0.26118844437482591
134873453;152.69112724773461;170.65294085187955;128.89253696895645;0.24172879457963212;0.26117047141181449
134873484;152.80547033449352;170.482202432684;128.80076589044347;0.24068963079835393;0.261167866221655
134873515;152.35381057568316;171.39902697568758;128.82080926351219;0.24052083064884411;0.26121996004611914
134873562;152.43333358126191;170.14852360265113;128.6589984862224;0.24004857253732359;0.26121821022746794
134873593;152.57933587622816;169.21005274726088;128.44949982694931;0.23882127138006004;0.26120606571647337
134873625;152.48080028750235;168.72030449200705;128.22654945736096;0.23802673242992728;0.26121486763473983
134873656;152.3149701187819;168.56101300640077;128.04476130105044;0.23704757722295969;0.26123470537126303
134873687;151.966928299336;168.41462751461833;127.8975898360885;0.23611689597234564;0.26126166498988351
134873718;151.48409557147753;175.2877861368203;127.7539044152241;0.23605054593162375;0.24423054585023599
134873750;151.11076441867695;174.81345215361827;127.58575830415042;0.23569261204730344;0.26136644962329308
134873796;151.38718670110552;176.31639783942541;127.41752282918664;0.23394669084296704;0.24903494387268729
134873828;151.58032094319867;176.22426390450343;127.34101652218033;0.23351195697014215;0.24646513559870842
134873859;151.79377573869027;175.67815302595611;127.34068442394766;0.23371234273788905;0.24554892155407518
134873890;152.00343002908849;174.77509575571;127.49512626679604;0.23530574148293304;0.24387850877565381
134873921;152.62017079057958;174.19466428150338;127.28643927820838;0.23365621160998934;0.24381820090238884
134873953;152.92700905300188;174.77591240242117;127.49002615751239;0.23341926586890219;0.241864556952015
134873984;153.08775019711382;174.26961606297678;127.50782423792941;0.23438716257120731;0.23990123885557468
134874015;153.22524400610612;173.93542975959142;127.84459443141159;0.23483217133344475;0.23800389993796742
134874046;153.47847562813729;173.41846936201642;127.78325936799624;0.23467593502942408;0.23706342303863104
134874093;153.6697656097956;172.28940502074281;127.82291729793381;0.23474783563425108;0.23662865445763326
134874125;153.22452834977349;172.8356312762518;128.21030021932586;0.23547785959872014;0.23533861696780994
134874156;152.99502396569011;172.63883402213477;128.26743938750445;0.23537268317872498;0.234014628168815
134874187;153.12419582405877;172.43840001107671;127.72443863738788;0.23527580194165224;0.23299181987423326
134874218;153.02883130039288;172.71303151964085;127.94037652304056;0.23462886649990108;0.23178688794827063
134874250;152.86572633334959;172.60222582025497;127.42341886993982;0.23361538685081268;0.22996128698879256
134874281;153.07852360187263;172.53277266730584;127.29458456298032;0.23310875279658663;0.22773935679094984
134874312;153.00377165979472;172.72733823248802;126.89521996653701;0.2318713743247228;0.22586413601785788
134874359;152.87119355493556;173.29845546083089;126.74276788782788;0.23046197538258681;0.22331102264688985
134874390;153.13062130853038;174.90117262726577;126.64154790243759;0.22996650404364219;0.21690538741904594
134874421;153.05171977768413;175.48397485100091;126.20266066044307;0.22978146053441717;0.24244052706301372
134874453;152.73973350495115;175.39568037936024;125.76346681230484;0.22603320175357533;0.22243186558078543
134874484;152.68047700931757;175.89827719428845;125.64573524754486;0.22553225522811968;0.22411461250606102
134874515;152.6516849591533;175.71299770449087;125.58645491309618;0.22458420976942459;0.22314588676326924
134874562;152.74864435503287;176.21032958377714;125.64350564192102;0.22470184859778328;0.22326797810156873
134874593;152.66825344911646;176.29533411566604;125.61390514631864;0.22586483701617746;0.2483286658331659
134874625;152.65972879645042;176.26502558827752;125.54808733605252;0.22576845246358404;0.23015508489727488
134874656;152.52512922163274;175.46430156531346;125.52270615958736;0.22540540483879978;0.22915849956141121
134874687;152.53067205739012;175.18659814944172;125.45196668924211;0.22562231451847256;0.2291861921317031
134874718;152.49100725765339;176.31562196486024;125.40017294029462;0.22552256397981266;0.25628561136631056
134874750;152.41926070187651;176.39429397961263;125.31167602316698;0.22584497381579172;0.2610614227175222
134874781;152.47800139984554;177.03092472312017;125.42049687731324;0.22729106498238863;0.25243828953652364
134874828;152.40223346285902;177.89293801405626;125.39371522578074;0.22949598870527541;0.24938363104025346
134874859;152.40533439884752;177.56296051449087;125.18286382589777;0.23138236423735017;0.24677931884974363
134874890;152.42630081125253;176.13598154422118;124.95620368426948;0.23282743635938294;0.2610395614580322
134874921;152.43458304750973;177.31378485068183;125.17384812136524;0.23259123999385148;0.25959260545392948
134874953;152.24491284576288;178.99559385309559;126.09197352793825;0.23246183690120253;0.25219016638770564
134874984;151.95079588767038;178.44748009115469;126.43658435565304;0.23162375707521254;0.25009199365773688
134875015;151.96988422567418;176.65868048812291;126.26534606681226;0.23117782968191142;0.24829091319307428
134875062;152.1514208051793;175.86878484650606;126.34951035199107;0.23302023553337509;0.24477102228764669
134875093;152.2699035915459;176.11247779983339;126.32057511888745;0.23483184249677325;0.2419043080155647
134875125;152.40246596396767;176.02831814873173;126.47526049248052;0.23591394776357605;0.23947020377983305
134875156;152.8249539559321;176.10374143191166;126.72523493892912;0.23676327087061072;0.23831786726235807
134875187;152.95366767001366;176.45162557942913;126.80227994696362;0.23614593045154489;0.2372522148359478
134875218;153.04865988441625;177.19313929250089;127.05025886253696;0.23636532653229475;0.23763860643266485
134875328;153.09136785515517;175.99779712156339;127.17045126005259;0.23450286853333638;0.23881474622246704
134875359;153.12492889475567;175.41192995272394;127.33387007092298;0.2342973837104945;0.23833806330434579
134875390;153.18643846171028;175.69037787778751;127.41986508454534;0.23310572394753093;0.2391220309348476
134875421;153.23702967323479;175.44051259877057;127.57128757254675;0.2337468670986167;0.239187531152089
134875453;153.13221791799938;174.74609095784433;127.64163544760127;0.23332251093667711;0.23967466216665312
134875484;153.02584631078025;174.63050592214162;127.69497202459866;0.233011241443044;0.24050998529718351
134875515;153.01705390241045;174.56844965611452;127.77076846101355;0.23280452162724663;0.24095429789936715
134875562;152.94010388554048;174.00940905104113;127.82641729478898;0.23262817828074472;0.2411317505824527
134875593;152.87334485684602;173.82440762380085;127.95442511928667;0.23251681670228161;0.24121104565678675
134875625;152.78894643381375;173.90942688361324;128.11404071013172;0.23223603012718838;0.24145074513482132
134875656;152.59557315308553;173.37742513781416;128.19992219027449;0.23209564073642586;0.24159921094906239
134875687;152.41039698660006;173.70743412341568;128.39582557501961;0.23187393534280018;0.24039126859656337
134875718;152.06609767561352;172.58502778571719;128.52440312945154;0.23159211561659596;0.24071724115552781
134875750;151.4972641442622;172.83799423941349;128.67668393508546;0.23137253624713525;0.242006821585861
134875796;151.01163146522114;171.56428195929348;128.94662087926005;0.23072694632954391;0.24320897255156823
134875828;150.57668902251757;170.64959250185464;129.28480334847393;0.22976534533892321;0.24302332416182673
134875859;149.72264018109419;170.71937506315027;129.62268633189095;0.22911920598442634;0.24359837891414188
134875890;149.47252003420078;171.06974080821087;130.24369155665451;0.22738936936779705;0.24230364047020567
134875921;148.3190321057094;171.54969604526423;130.64338945438576;0.227855295806887;0.24352017739398435
134875984;145.31113788075493;176.85254074746428;131.43364573995882;0.231435214211809;0.26249127973664871
134876015;146.21173780213104;168.64415878733456;131.79893341393566;0.23002343621518437;0.26253308502381478
134876062;142.42735534722507;176.37867235164131;132.24964200812576;0.227385987799759;0.24047273848133782
134876093;144.79873641902529;170.47531744198997;133.19437970857359;0.22183079261266434;0.24212409949424993
134876125;145.84441576427952;168.46575724670836;134.20982177881166;0.21631271978759367;0.23958166392127475
134876156;145.43139676181451;169.11934672756371;135.14010376120643;0.21345937954123612;0.23565151174035312
134876187;146.44901966698393;168.40783569005532;135.73523453483389;0.21133729189171288;0.23335036788658703
134876218;147.24062832194267;168.04956202530556;136.66056169295536;0.20693320548465993;0.23636648902836624
134876250;147.29282386808725;170.74469957601195;137.51763510424951;0.20490532091713956;0.24962960986594859
134876281;148.80290089619751;168.14745683460623;138.32947529937792;0.2035233393806947;0.246308871288395
134876328;149.3023181104806;167.97772834623368;139.06264085127529;0.20163521191371714;0.24278324244454258
134876359;149.99329884957879;167.59405339995925;139.42930990267752;0.20071750537095831;0.24194725976053791
134876390;150.16821754223264;167.76587620196611;139.832481381755;0.19894185862481831;0.24181132556573071
134876421;149.62106822354113;167.85262242868748;140.57923414546872;0.19869690483190947;0.23999818420897442
134876453;149.73717571292923;167.73818143397787;141.39054980043764;0.19882516816650334;0.23746894813268818
134876484;149.79449501609327;167.29717020001007;141.98119328080566;0.19893827995836735;0.23631497472744453
134876515;149.20178954205846;167.64271019256046;142.70918920795378;0.19898242237979444;0.23710649515326596
134876562;149.71744203070855;167.84490448588824;143.06459136493905;0.1991088613042756;0.23568996977187937
134876593;149.21258471365204;169.35362903782539;143.49080907101603;0.19915445572095378;0.23044131089178258
134876656;148.94376166179623;169.16888177542847;144.10964404696264;0.19918681252532822;0.22882294833237646
134876687;148.87456442559409;169.21293824375675;144.5644888118288;0.19920285775621224;0.22737260061194131
134876718;148.65571322121005;170.5347441265159;144.92999990557291;0.19921429901215246;0.22550928281028823
134876750;148.75711986334224;170.78730381909048;145.14703776468082;0.19924019726491557;0.22359381712361609
134876781;149.14198634009952;171.42432225762244;145.2830152057843;0.19927957137554875;0.22184406399760662
134876828;149.30809427829502;171.87329730131904;145.54582168016688;0.19929337037084033;0.2200500037439494
134876859;149.75348418729342;171.71602588680244;145.7132714579715;0.199325814147382;0.21904753243430741
134876890;149.92744272622434;171.78359899875247;145.93585829541593;0.19933333436907891;0.21742484240199073
134876921;150.09177339605398;171.26476110499942;146.1056340396087;0.19934085244443173;0.21624368184586082
134876953;150.17118917624757;170.99128767157;146.34493319774921;0.19933453569949489;0.21506360637271027
134876984;150.33150313161025;170.75274496523417;146.48424349237274;0.19933389101856089;0.21455148314439412
134877015;150.60109228318751;170.72515827176665;146.50277418762619;0.19933894024683987;0.21276248270895409
134877062;150.71815921697771;170.60009187159966;146.64252068249155;0.19932241796617439;0.21095019186091488
134877093;150.89315973780273;170.31683340641322;146.88528423585126;0.19929542422520297;0.20977780046636155
134877125;151.06777856379588;170.56337625023357;147.2615035983531;0.19925435209359169;0.20735189357475767
134877156;151.2786881090818;170.58774673426538;147.56928456338108;0.19922503220710275;0.20626287518018119
134877187;151.55475451252082;170.67837963846546;147.81391975467125;0.19918904003489255;0.20969664428118851
134877218;152.05159063577955;170.18485437464051;148.21370206276794;0.19914362240661832;0.21428381518151973
134877250;152.38834484672455;170.41697548964424;148.55343027833916;0.19908229325582888;0.22462173229605068
134877281;151.95907776327729;171.3404950560155;149.20633751854723;0.19896437473683132;0.22876659524750898
134877328;153.05789478972059;169.8821193353586;149.70422174721418;0.19891750517739781;0.25383396104497291
134877390;151.53431083700875;172.73989859136651;151.06120690338923;0.1986159413860987;0.25594857929810033
134877421;152.94442812540748;171.93979902826106;151.49505308192647;0.19850835003407927;0.24713168215674661
134877453;152.91485324945472;172.34467485835819;151.64329056844068;0.19838713767260457;0.24835941844455003
134877515;153.25860586905895;174.03902603559419;152.35683019274319;0.19898367879566803;0.25018913536616211
134877562;153.02805667736789;174.39689978403905;152.70946882447427;0.2003103731501498;0.24968717565119619
134877593;152.66505673762828;175.04192538657165;152.98194543358554;0.20175154976393245;0.2493863277848703
134877625;152.54675098394841;175.56813736735612;153.0722438466087;0.20306763906212438;0.24878665124294563
134877656;152.84645806376861;176.90775523436133;153.04136047724961;0.20510335851272551;0.24875191959632365
134877687;152.67225896437981;177.45197756205329;152.95795894112891;0.20706426352981439;0.24890696206046517
134877718;152.80770234499536;177.73787750200734;152.85358918178309;0.20770074852460235;0.24777001639755
134877750;152.98318416872922;178.42660011341383;152.62697598632184;0.20879606876957804;0.24976634573605952
134877796;153.28157801553323;178.094877662021;152.17911728056205;0.20971222353956695;0.24889499368923354
134877828;153.67361050918919;177.6067454683658;151.73643757690971;0.2103626185393794;0.2467584695514719
134877859;153.62695836546448;177.83525866046782;151.17058886426352;0.21145322691318247;0.24870533004298437
134877890;153.47733411626851;178.26304764503004;150.62175689339404;0.21253213499785822;0.25014941295910809
134877921;154.02885739628633;178.40618673521394;150.14985771988583;0.21514298001644341;0.24918255718487506
134877953;153.16612599315764;179.0107716791666;149.55226944334174;0.21375166813537;0.25526424524938307
134877984;153.34062124032619;178.92031379111691;148.93979325831319;0.21299480660050738;0.25838119731538173
134878015;153.65172215749698;179.31749510895347;148.39277659339956;0.22053334225889282;0.25170859332865642
134878062;154.36807111495662;179.36936036240388;147.98983795967189;0.22528937532604987;0.24822354111579661
134878093;154.92388468759111;179.19945983159295;147.44603391159541;0.22857261436424;0.24687517163736297
134878156;157.03962426114086;177.5162594780272;146.75866289644961;0.23073373138817577;0.24624010397811993
134878187;156.44892455434641;178.34568597227516;146.19377034186039;0.23269171566809038;0.24513877286513502
134878218;156.90830875833515;177.94739431816893;145.70945873634344;0.23383651750776022;0.24341295053131734
134878250;157.1513619133498;177.95905022764109;145.24241458119246;0.23556315877053535;0.24184043860146981
134878281;157.44275734163082;177.89362164889113;144.86069875238911;0.23615786610160719;0.24159618525679338
134878312;157.1313770582631;177.99664527578381;144.17645670914055;0.23599843302197085;0.24196355476163745
134878359;157.12947071782065;177.94444353717921;143.70286784351816;0.236228214383204;0.24124282883033155
134878390;157.28014228539752;177.0136274403919;143.24829108560303;0.23679718373908265;0.24033486619249181
134878421;157.27962100037252;175.81231299157375;142.90584856536239;0.23719615629880206;0.24047354643344931
134878453;157.56073253882357;176.31978791298479;142.56052961864774;0.23700656052440666;0.24046460331926883
134878484;157.80598416581927;175.961821135094;142.28311171850862;0.23663785068022589;0.2420093484235602
134878515;159.05691670723164;178.3767750144136;142.08236683244519;0.2365328611732222;0.23140718658101606
134878546;159.32362767171634;178.0138799468013;141.92241784820854;0.23645952753429425;0.22850573219225426
134878593;159.52168592345126;178.05304684601791;141.77831607902604;0.23666254445516707;0.22631448454889089
134878625;159.72186704557612;177.84449522888716;141.65636128762031;0.23645734054456594;0.22459812691525866
134878656;159.80406861518463;177.74589408518588;141.51458707408034;0.23637958711029738;0.22318976519079695
134878687;160.31720449036081;178.9294694483167;141.44625316995695;0.23652560459585098;0.23025979323505144
134878718;160.36280365281994;177.96367844391094;141.42235337674;0.23696451783041173;0.2324240380100972
134878750;160.24086222939195;176.57888753425846;141.41316229958889;0.23734438991816648;0.23422956857755972
134878781;160.15347656687993;175.68082739798516;141.4904685186948;0.23805819987758159;0.23466039930020965
134878828;159.88814297828657;174.4200633298818;141.56483418825553;0.23853672901942835;0.23556309780715631
134878859;159.55001717107081;173.39614776369714;141.64276296974788;0.23889635162769493;0.23488328032256531
134878890;159.02753234259012;172.27037170959119;141.90884008870069;0.238748515768927;0.23376658463716296
134878921;158.68683060638588;171.47714124859658;142.34425518362014;0.23766236907963709;0.23178162388069912
134878953;158.70776862595582;169.76738755247521;142.82754683866278;0.23719887817688082;0.23130886429878583
134878984;157.76309492734663;170.83054382615265;143.33109227817423;0.23665728558003252;0.23254663370111725
134879015;156.90925092295225;170.68602835203726;143.97175824932282;0.23580409498001678;0.23458752363452876
134879062;156.60958911760946;170.8578719092605;144.75662575529492;0.23431957106068954;0.23976732904197051
134879093;157.11841183861679;169.42840757203791;145.65577650052214;0.2350836263071879;0.24132696478296248
134879125;157.148420844164;168.94836857514133;146.49702579104834;0.23362890817735216;0.24135523043530624
134879156;155.73366996436204;169.76330474023084;147.36419807601712;0.23213428097676558;0.244405023058615
134879187;154.81425138509019;168.85940815582958;148.34419335924451;0.23091133028040739;0.2455427042014538
134879218;153.09852094476941;168.451543038084;149.18394536581616;0.22910057893075683;0.24738034128825054
134879250;151.94124230620412;167.3927279368659;149.83178526034644;0.22514323297491026;0.24742672933021059
134879281;149.98166124423557;168.6808216911522;150.60485864700408;0.22203595121399428;0.25548667955060494
134879328;149.755267868046;166.75022817890493;151.32562824425264;0.2198593199352053;0.25978342570793411
134879359;149.51114301572;165.44757067821081;152.24454825444533;0.21830196247525244;0.26114398753082729
134879390;149.13341277395404;164.85219507790106;153.16382695663361;0.21597484216545548;0.2627082993234568
134879421;148.94192730259823;164.96086057719202;154.06553999897423;0.21400666695280476;0.26280816790697359
134879453;148.96169420768206;163.9206096607079;154.96083484152075;0.21245536730778747;0.2628752477611489
134879484;149.15253294192536;163.32564347185547;155.8267697257935;0.21130584462888827;0.262932569317978
134879515;149.4396173316477;163.68866706263955;156.51634165245218;0.20909699943002907;0.26298844541592958
134879562;149.31844757248049;164.15031818124376;157.8820049305518;0.19762195100343691;0.26301964728078342
134879593;147.72845724269456;164.45084150759482;159.12166515371959;0.19758044165630742;0.2630701932334793
134879625;146.2923094310363;164.30936877339767;160.16691274226139;0.19758298615643458;0.26311287885042439
134879656;145.258263176667;163.29482257172185;161.19167866484389;0.1975684916596428;0.26313778101647434
134879687;146.15503568653921;162.19495801089872;161.44484266429458;0.19778716213285255;0.26314509941239339
134879718;148.61422596886933;159.94455785707928;161.2075885772328;0.20005379709583226;0.26314011279237304
134879750;148.14772475104152;158.69038853692183;161.34798442274771;0.20427977101904288;0.26315061457446265
134879796;147.56008586791069;159.02179785007559;161.37824307263645;0.20668600629141934;0.26035129229611309
134879828;147.29340102082927;159.62516827658479;161.34071385673587;0.21065800970890797;0.25365418033126613
134879859;146.65368554632627;160.12325535054268;161.47745711815983;0.21228501992360341;0.25061630787795158
134879890;146.32900123104409;160.44535094426988;161.53600535281944;0.21415561132471345;0.24798843192119835
134879921;146.01168198915906;162.13760831967926;161.73180230152565;0.215270494437704;0.24618606863624043
134879953;145.81429252446196;163.41576275242522;161.90812542954654;0.21651186964973396;0.24485105174517807
134879984;145.83341090261092;165.57586507179684;162.01072041095128;0.21747996141193732;0.24161186653024946
134880015;146.05535377470463;167.4545700640075;162.22627076002829;0.21836330131498377;0.23923223890343179
134880062;144.04878977354997;169.50052889189672;163.90062749112931;0.206747516328115;0.2539480476315118
134880093;144.7597566289729;170.95320736785686;163.8676913061023;0.209581795200875;0.25231306611413312
134880125;144.55334016478307;172.24157440707074;164.26675774615444;0.2081447032677792;0.25614120686068093
134880156;144.53911260164193;172.68697151252027;164.76197332447012;0.20630641159247679;0.26140994081853386
134880187;144.232656812788;173.06574156811774;165.08596311362359;0.20397617272184482;0.26295788908926149
134880218;139.72595200051003;174.57632252325865;166.74830091352004;0.1967137374552333;0.262955214616878
134880250;141.06605409355393;174.2288173329726;166.66823678729827;0.19663718886875428;0.26289727416784509
134880281;142.49727730489244;173.99705146240072;166.34845132652472;0.19655058997082925;0.26282287653221847
134880328;143.44953286182977;173.81990949149463;165.62234591357111;0.19642675203910717;0.26273874822946974
134880359;144.19644652457669;175.05064787162598;164.66659709188548;0.19632336831900771;0.26265350186201625
134880390;145.19187059361209;175.223002909324;164.28283007275041;0.19617030290524559;0.26255446623279033
134880421;146.19192298020803;175.91890821969594;163.27901566248534;0.1960130799826981;0.26242004175801448
134880453;147.58831955209357;175.9647620376945;162.34866919275461;0.19756474502206309;0.262278072771511
134880484;148.00792631227117;177.47748188228576;161.15415684497623;0.20186287154579372;0.262124421823534
134880515;148.53031133797094;178.25616966744462;160.29227169031435;0.20641274949620095;0.26196014323349287
134880562;152.6244494393946;169.45249905884089;159.12032178596485;0.21078769465857025;0.24511774850382145
134880593;151.62193498340389;175.31304042716855;158.25522228230631;0.21472824564359178;0.24382430077208545
134880625;150.69683883965112;177.99453061439598;157.17018394202952;0.21790563893047613;0.24619167372795048
134880656;152.06336799690956;178.4519348051353;156.57250245752996;0.22283691311869311;0.24084316736003794
134880687;153.39514409645867;175.93738240143432;155.42965959266817;0.22803741776095818;0.23359776073224
134880718;153.22038556480811;176.85674033439318;154.38077864753169;0.23143187366856965;0.231902197756306
134880750;153.42261381111675;176.53527849457251;153.2026510714;0.23555112031054715;0.22184452260208443
134880781;153.86293863713678;172.79078563795687;151.94013138932434;0.23807429332277555;0.259619600693957
134880828;152.69513596102397;179.49999301636504;151.44002645980606;0.2411316236005715;0.25953505309780517
134880859;156.61025857301826;167.684430301433;151.13255985804742;0.23918429063658075;0.25174974172692005
134880890;156.20912090457006;170.50366134257266;151.04213959766173;0.24303692909425195;0.23866303725961938
134880921;155.25095673413983;170.65505775677971;150.44458227761277;0.24578672821223252;0.23169871863625258
134880953;154.21760896152;171.79326153652832;149.95172439238755;0.24641692632622697;0.25820039591087085
134880984;156.78371197983009;169.29725289256064;149.95825626581143;0.24771085896570302;0.22411613029372152
134881015;155.31932338702507;169.93160626517633;149.81793688483668;0.24915971787333469;0.22709508896013414
134881062;154.40386943989969;169.30110370793977;149.81227662637949;0.24957472475753564;0.22983875524549546
134881093;153.8948066461497;169.26304406354112;149.70583653666753;0.25197182343381758;0.23043132567580782
134881125;154.06866536023935;169.73587574073329;149.95173781338616;0.25416480582109457;0.22981927110233924
134881156;153.97341046854629;170.11326811852533;150.05343216456856;0.256264064899495;0.22945349861279671
134881187;153.95499470667812;170.88304720140971;149.91363088050136;0.25737844630957568;0.23003018726020819
134881218;153.73771459813267;170.89392688194121;149.78313698079762;0.2572880239239716;0.23133051089868376
134881250;152.75688097320722;173.14964136427489;149.60665607644157;0.25042566162110397;0.25727066966634238
134881281;153.2354567176788;170.58152887486548;149.70387126581315;0.25000624739078514;0.251998773909867
134881328;153.45264204971298;167.43256424835192;149.82897780520827;0.24641151860521396;0.25536843445379609
134881359;153.14821759223167;165.38500712949923;149.86435043623931;0.24351283385746364;0.25622596186629149
134881390;152.7763523049216;165.80712245005552;149.97350293589113;0.24054192946540406;0.2581022378766003
134881421;152.21377520151324;165.64350211482966;150.16051779374257;0.23863573776692232;0.25846614271508267
134881453;152.12738274555156;166.10531012406776;150.70114249305291;0.23673990584439353;0.2588224056827777
134881484;151.97903617189957;168.72213479564815;151.50616053645044;0.23511325302499248;0.24916039337717125
134881515;151.982113700209;166.58550600635792;152.44733418836989;0.23380129631561741;0.24755924412286248
134881562;152.94521792061158;167.40874069748722;153.93997195979694;0.23876273418918395;0.23579772733361656
134881593;152.58636563984481;167.88414501120761;155.62698874235346;0.24195134778612779;0.23097986943631507
134881625;151.55648920748712;167.08754605950853;156.82824301144535;0.24082373091372603;0.23316759595205641
134881656;150.44424206344692;168.40872378341916;158.33104047061522;0.24132600434955545;0.23821583105521957
134881687;147.43568408817848;172.64173468956548;159.69229733129126;0.23890718462126692;0.26141981061534159
134881718;148.69298634922271;164.78884270605553;161.18687655934798;0.23644904914529338;0.26158200514111007
134881750;147.23609750116077;165.1825846415812;162.57865969364912;0.23751937858577377;0.26178776073594978
134881781;147.4170070814167;163.64335604944495;163.52602277185557;0.24116076459707933;0.26197622227522133
134881828;147.17262876540693;161.02391049064366;164.43469253014877;0.24525734551793432;0.26206623365352216
134881859;145.32901423513911;161.74980946267738;165.37618482680475;0.24558616621332521;0.26213285125748159
134881890;144.27030864275122;158.67051839440182;166.28261405642289;0.24719753049168736;0.2621678188695919
134881921;141.67808015745266;160.87224831868653;166.61656417944269;0.24718951781815682;0.26217210688755388
134881953;140.33266502509187;158.97023677239417;167.00725053074785;0.24603149718190595;0.2621979933425615
134881984;137.90706217828128;161.39018145385157;167.34141729275817;0.24380026897929216;0.26216653419798264
134882015;137.43711437012672;156.80437665452195;167.68457074588324;0.24170935541751076;0.26209975558367221
134882062;134.73906427280522;161.14791185344691;168.21750248049619;0.235557743443916;0.26199012376188352
134882093;133.05473617168329;159.02123136386481;168.55480649677566;0.23425779998241439;0.2619431244533067
134882125;131.06405012097449;157.67817034889049;168.69718220411954;0.23416787557937444;0.26186955717473387
134882156;128.80860665445553;157.82424830951976;168.76929613338774;0.23424510818041525;0.2617678564201133
134882187;126.54332743893394;157.33699767087666;168.93332506148749;0.23505693107380121;0.26166246958997036
134882218;124.5513841262833;154.56675097266805;168.94783773806924;0.2360949406949992;0.26158203222092313
134882250;122.91968673738413;153.42839338515407;169.0386204866785;0.23727862342515377;0.25394681201984
134882281;120.97637309084642;150.96988850523923;169.15348691747715;0.23751688504214577;0.2485987154977426
134882328;118.60761949336762;149.10452738723157;169.21525160904102;0.2373622554525929;0.2445995559845652
134882359;115.75946961953498;147.86854104521925;169.48664796149308;0.23664787390106509;0.24242433485033582
134882390;112.7020297156791;144.80034417221785;169.52171713040386;0.23680034653358809;0.23987741729651871
134882421;109.57830643562;141.69527644006885;169.76022682912932;0.23661226238275909;0.23730539016228672
134882453;106.4509546119082;142.25601587498139;169.68090662854749;0.235959479859897;0.23334105779554445
134882484;95.47378047380964;150.00046846465676;166.24494148574803;0.264859366001773;0.2279180509801132
134882515;94.067789417993851;151.35833899723639;165.85420858064302;0.26487049342168895;0.22295966326180716
134882562;95.472652493941538;151.25480561041346;168.73936763141316;0.23701760839044461;0.24043659958617855
134882593;91.307252483013031;161.93061744577346;165.72344709718905;0.26466617976962065;0.22439589682957337
134882625;92.0672186922377;169.65854500406894;165.33341832836538;0.2646706213168098;0.2209442625977899
134882656;96.243032639143223;168.00707515367205;165.28387196092186;0.26461715035797967;0.20865619155459189
134882687;98.625732305281872;170.86925120439685;165.35691159990742;0.26452785794812989;0.20897766570353576
134882718;103.74396545742765;170.29983991588003;165.90868826803487;0.26436003761321014;0.20964485367139188
134882750;108.08815837619703;171.19480077475981;166.62466937453212;0.26415967468147544;0.21595347309644503
134882796;113.53225171132398;170.06142665866591;166.86482781370796;0.26398538657814818;0.21547746810432897
134882828;117.41560955877394;170.23704774558104;167.16621708617518;0.26370791875446664;0.2170553791383068
134882859;120.68545149362436;171.14924592942884;167.2708898628895;0.26350421757692277;0.21913622271431882
134882890;124.22992297719226;170.53645717372427;166.79156300572728;0.26329803470494834;0.22264552479165875
134882921;128.21772162632678;171.58553436821953;166.49926929396526;0.26320375469139462;0.22466352840013029
134882953;132.26997993237407;169.74658110042338;166.18768435718488;0.263071002444428;0.22713489787947441
134882984;136.48276327066608;167.22835772988006;165.6599790552726;0.26297940240344;0.23124240394393331
134883015;137.7804957833927;170.21768442296838;164.97212406306969;0.262815252533695;0.23367216309207348
134883062;140.47942566649593;167.61048436378118;164.15490673720777;0.26270149428373907;0.23458003493157087
134883093;142.34107980285495;170.38425156388817;163.57116415279828;0.26258929084586186;0.23858930256562128
134883125;135.53894183432649;175.38021943704013;160.3282290519783;0.25060544871122553;0.26072990808642088
134883156;138.88270746722841;173.11813193402944;160.06055082571672;0.24835527706313099;0.26052356466575372
134883187;140.59634653631414;173.2830299928477;159.72388203539165;0.24736485772879113;0.26041131858553085
134883218;141.66926178564037;175.44815920545122;159.06325970090526;0.2464624676361607;0.26032447847942
134883250;142.50239062059544;175.6663697231491;158.501271170644;0.24807403908862122;0.26022786953589222
134883296;143.05031137647177;176.0179703733393;158.14828687324453;0.24662659877904902;0.26016292752104941
134883328;142.97473795405804;175.59010074340375;157.56392180781737;0.24594541817527754;0.26013253775194645
134883359;142.67339582027171;173.92307670937794;157.19462883162987;0.24550491363813698;0.26012083323813151
134883390;142.25116762124441;169.53236308272849;157.57387580608443;0.24916126737086111;0.26013841822393186
134883421;141.46199931128152;162.09039522697702;157.07812832955011;0.24835651801205902;0.26014247567386573
134883453;139.65802501063948;156.23005416113733;156.57167615069756;0.24686560222457007;0.26013923751202733
134883484;136.77131479300886;153.23256254940768;156.28632475686845;0.24540445773938102;0.26013022299836586
134883515;132.65378299386916;153.60971129040527;157.00800965160096;0.24688792021169279;0.26015082100773923
134883546;128.22905293335262;153.07606981010829;156.71861345787369;0.24630286985057356;0.25635667680065111
134883593;123.28652400493039;152.61912455044816;156.74446715232125;0.24904255580310286;0.25043165769428583
134883625;118.24892006204492;154.7966801625974;157.01807970716217;0.24739947861953016;0.24723721178070413
134883656;112.99374473037476;155.64002599952426;157.35710400389965;0.24711963313899596;0.24899435286081412
134883687;109.59475450700104;152.14555425588651;157.45559256360008;0.24308018181821806;0.24937752749494685
134883718;105.07179066102877;151.42271738524929;157.01415060298888;0.23964178566836483;0.25150780100665171
134883750;101.36273917447856;150.33632319775126;156.78645211493083;0.2382090728733659;0.2486427086415369
134883796;96.1834806197523;154.51435121666577;157.0949797781889;0.23813786698178205;0.253285190109835
134883828;94.260679008206552;151.35968661987866;157.74072286464576;0.23797274358641449;0.24840086799277253
134883859;92.101325948819522;149.76990341726412;158.31173154865272;0.23718576636305835;0.2436607261178316
134883890;89.732691842284609;148.72334790923921;158.79201668489378;0.23530670892316966;0.24463926819209969
134883921;88.946816840603063;145.45103178385594;159.04443586999318;0.23392947814040674;0.23891259262870937
134883953;87.64206280327636;147.64706411557614;159.10547319716389;0.23283500500668489;0.23434661760967018
134883984;86.724927511576169;148.4145486575101;159.15414897573353;0.23215456025402967;0.23359768724990943
134884015;86.3964907132473;151.64928883604608;159.19889751085412;0.23175118817915336;0.23271299033622203
134884062;86.316995440496655;157.72964876899698;159.1427528005128;0.23134863994151975;0.23312539684903863
134884093;86.663127436539781;167.31763384347363;159.38797716042768;0.23228637305464664;0.23414728249704866
134884125;88.937387710935624;171.97026766850107;159.35169483010404;0.23248378151132446;0.23448324124805478
134884156;92.0011537721845;174.96154640639821;159.26253152540014;0.2337621288933758;0.23812864928801092
134884187;97.783297211120683;168.97422711665718;158.50174041421906;0.23434248705371788;0.24011850301443558
134884218;102.98749337428554;172.68130354185436;158.39831800828924;0.23419335753136802;0.24265947876435498
134884250;108.84446554896023;172.84069997863958;158.49743809659555;0.23452353010736543;0.24792503520071565
134884281;115.57287790300678;172.39251832025173;158.81104472097542;0.23590336442353918;0.25282183683637083
134884328;121.61167492946341;173.88292180397804;159.01596878920327;0.23727789484000261;0.25871563077752519
134884359;127.62694501452042;175.41629487753667;159.61723120214052;0.23878297817729491;0.25565260571573412
134884421;141.88168721464916;169.26310291442709;161.20117815033819;0.24245045356718264;0.25994014930002529
134884453;144.98558289252944;179.27065813011086;161.6758033229786;0.24549698656003763;0.25982508456411357
134884484;149.2704061094534;178.8903257064743;161.50544630368628;0.247232795343645;0.25969076268313196
134884515;152.3673740331254;178.52257565039977;161.20555639218091;0.24838285278146763;0.25957435880099028
134884562;155.89899794407296;177.04520111517758;160.74590440191454;0.24946365296381384;0.25764946671691558
134884593;157.63899539565205;176.76897815687113;160.066509283286;0.25175685418843974;0.256021549289389
134884625;158.71000678732077;175.9726347090643;159.3077324963532;0.25364472550175227;0.25482001024860318
134884656;159.2266568946828;174.7994916716662;158.59233203650086;0.25546345596088033;0.25634845114144134
134884687;159.27908166917803;174.01825609301773;157.97393284161927;0.25769998410273359;0.25589842379902161
134884718;158.91262327229032;172.33693606585192;157.42832078695196;0.25925993166630412;0.2557933211140731
134884750;158.4361592053055;169.66527694274231;157.02735301522094;0.25975352152215475;0.25563128238958654
134884796;157.67566424148046;165.23291459780677;156.65994798246811;0.26050584818812028;0.25494649089815341
134884828;156.47116816272816;164.84306851305422;156.37215027310899;0.26074626557466291;0.23138187978495234
134884859;155.57395764957266;161.51599506092609;156.18824533815302;0.26115372864719594;0.2273966141795592
134884890;152.87669289985945;161.36377775437589;156.16889312752954;0.26082304266694428;0.24352907762292161
134884921;151.40244620864067;157.05783596329994;156.13404120149846;0.26010297089206208;0.24778328855079204
134884953;149.31820765838475;155.54009548580552;156.13780821407113;0.25940332764017149;0.2510304528389331
134884984;147.38344358843031;153.86605872785773;156.07449549772608;0.25845746209331083;0.25284233459183464
134885015;144.76473956511055;153.6867257448188;156.06391620918956;0.25785139294629944;0.25717624610410905
134885062;143.06778420419505;151.86548545671263;156.04913067348832;0.25725434944909437;0.25854287516620966
134885093;141.4284238837723;152.1942786146476;156.0859353663765;0.25697491698125585;0.26007765455484555
134885125;140.40183951535957;151.64873307109824;156.0690699458693;0.25653905379101666;0.25936336467794791
134885156;139.40911740920356;152.08882090273616;156.08718041667922;0.25559450939164091;0.25951265603245249
134885187;138.81408094612414;152.92219815564818;156.08419479197005;0.25468562094849839;0.25976934331121138
134885218;138.43933606269695;154.76582922031568;156.09360718393845;0.25392837011300434;0.26035591376098388
134885250;138.33796137671567;157.292395645972;156.12754605931724;0.25345169694433051;0.26043511975104833
134885296;138.43134901497604;160.19145608390508;156.21732434484818;0.25305809071720642;0.26048665470721932
134885328;138.78899590535355;162.32084740033031;156.28651825209576;0.25270127624085503;0.26029688082679436
134885359;138.91593666469944;165.74594959618949;156.30019408256746;0.25257233414097574;0.26060183571757461
134885390;139.35238975819851;166.92953436677968;156.36192125393649;0.252488519594016;0.26066794682348515
134885421;139.80263113891982;168.71461269002276;156.34706624487384;0.25250276921996162;0.26069697662455138
134885453;140.26894703092654;169.80030421854144;156.33889960372767;0.2525785088695881;0.2607257163245732
134885484;140.82817561425384;169.47307320367196;156.337530637146;0.25321780665986016;0.26075082152878343
134885515;141.20293551603689;169.28584590938272;156.34907154320484;0.25366641328043776;0.26077609004864605
134885562;141.67661063968885;169.32020478179618;156.3726998798204;0.25394925633243742;0.26079876881329034
134885593;141.85181305360669;168.79445099802908;156.27228436911244;0.25397121298930714;0.26081296282913013
134885625;141.9967063214722;167.7069312063031;156.2350651619731;0.25390686622611763;0.26068938975935568
134885656;142.05559244046742;167.49993759676843;156.14047717046498;0.25387291986404681;0.26045171421574242
134885687;142.07504533428485;166.32482458523774;156.06788348632745;0.25365127551689171;0.26033338298222564
134885718;142.05559114344118;165.49953023756547;155.994924137167;0.25334742786067366;0.26025203160206234
134885750;141.99173348184593;165.163073564209;155.87661390994848;0.25343852850159315;0.25997952166896254
134885781;141.92598999252502;164.73511321877754;155.69271032770931;0.25321738984102971;0.26004977540057211
134885828;141.76629505387461;165.17178527816969;155.47431997855517;0.2534937426043814;0.25968010809839814
134885859;141.65725553910863;165.1614169218733;155.29320985610158;0.25335296775845106;0.25943065819851979
134885890;141.51352745212591;165.33644887527765;155.16473575972893;0.25318567509653911;0.2594888188598849
134885921;141.31744576056022;164.6920641246017;154.916947225564;0.25316748502789371;0.25942668339715108
134885953;141.02538594304556;164.33624599336244;154.68000912852145;0.25311164766577882;0.25943358485284251
