TimeStamp;AngleElbow;AngleWrist;AngleShoulder;LShoulderElbow;LElbowWrist
2874890;80.982637620458817;133.68490895071597;120.72957070782788;0.25278149279431783;0.2506448517336245
2874906;164.3954263234223;176.7487486253001;121.56881980945659;0.2188125043864288;0.20183819512215773
2874921;164.6633840932563;176.74320670467236;121.58202101567358;0.21890479091634985;0.20163756266801927
2874953;164.78840943170309;176.73899433734684;121.59121227116435;0.21903298971218632;0.20145205039436853
2875000;164.94994235511027;176.73236826748041;121.75773035858626;0.21921704456426816;0.20124552941626089
2875031;164.94171906218543;176.73070614091361;121.82486902115349;0.2188390491538125;0.2010864889202795
2875062;165.06261592603309;176.72616527937308;121.89918929038385;0.21908708923569126;0.20090945730304566
2875093;165.10904872838498;176.72351749280702;122.00322302121529;0.21937157146139988;0.2007617641903556
2875125;165.12639904193773;176.72120035067488;122.01254457408807;0.21951737584423475;0.20062597385111869
2875156;165.25594974199191;176.7168257495118;122.03476787920458;0.21972164829036125;0.20047709566994279
2875187;165.30899181751448;176.71414387527497;122.04365114281085;0.21973704611708395;0.20034967481967991
2875234;165.4323374327482;176.71108786314673;122.1142608833183;0.2198032594353603;0.20022749561979991
2875265;165.30489895077284;176.71188558322626;122.16306551819955;0.2197863930314333;0.2001451337328832
2875296;165.32845414727186;176.70965366505845;122.18174201575749;0.2199131684605089;0.20003894525529367
2875328;165.56986950914194;176.70386349037287;122.2183015959656;0.21992774888355973;0.19990517310916109
2875359;165.60123827724809;176.70240810062003;122.23463573382327;0.22002837582483892;0.19981595816928316
2875390;165.73988174622261;176.6983109155492;122.24703336118976;0.22007272601217481;0.19970400164893662
2875421;162.4845794172806;13.513818442499725;122.2722006749385;0.22006722282380667;0.20008813204622505
2875453;165.89748646965663;176.6931922203035;122.29919508471969;0.22012111558449291;0.19950840716645954
2875500;165.60934750527395;176.6974548306037;122.29163491439518;0.22022835662860726;0.1994807013238977
2875531;165.55087415717352;176.69713108966496;122.33274232672767;0.22024029642031878;0.19940944864660418
2875562;165.46392918773822;176.69790861077115;122.34639562839017;0.22020630064660415;0.19934749077709163
2875593;165.68381910062325;176.6931506879362;122.31816391671967;0.22019868956225597;0.19923646283361943
2875625;165.61525839392249;176.69334016525227;122.27159041248905;0.22046528926877615;0.19917521904976529
2875656;165.43108904429232;158.20546844837827;122.27290112146592;0.22058603904281235;0.19913491566284677
2875687;165.49088108444039;176.69408232280037;122.26740216670845;0.22062564670494311;0.19906099554727866
2875734;165.45970179678852;176.69387066584451;122.266946305292;0.22056433630495753;0.19900357237636659
2875765;162.93539808740786;154.77121923562967;122.21270671845397;0.22055551665414369;0.19931484033604408
2875796;164.73703351410677;159.8915887412858;122.18924925052328;0.22060205534712934;0.19900182496776195
2875828;162.24061936572286;176.74967942830838;122.16256676750197;0.22060957651957203;0.19932498014011454
2875859;161.93750408137527;162.17593079949205;122.1890656166198;0.22054807260051665;0.19931430989152293
2875906;164.27831333592326;160.24110067035832;122.12594474533736;0.2207952702399453;0.19891817404177076
2875921;164.40305328552716;159.79591152046669;122.09200562699883;0.22091974491935051;0.19884954389299331
2875953;164.03889684724129;155.97292103965543;122.06984417431535;0.22085951161445203;0.19886621634573945
2876000;161.60015523004012;163.98075945420499;122.04972772736764;0.22084865044569552;0.19918255486704409
2876031;161.25105982808697;160.25689559200941;121.96145635590524;0.22103491292589542;0.1991814115414772
2876062;161.19141011001028;2.1483895967509148;121.97763341715741;0.22105232203583408;0.19913710407227175
2876093;162.57867733584939;158.00953398772626;121.9083342846145;0.22109172869276497;0.19891268555951305
2876125;161.44295494562962;161.04810169165759;121.92543027523259;0.22108062294537784;0.19901559248407016
2876156;162.94255019202561;176.72849456389221;121.85142470328549;0.22117110112070906;0.1987483729899687
2876187;162.9830644623587;159.71104941654579;121.78600769907558;0.22135634350088479;0.19871327450979412
2876218;163.20661680828204;160.11384091137191;121.79699156525025;0.22131141349433584;0.19863975761172564
2876265;163.22295573929858;176.7223532352227;121.81980376937213;0.22131891672491447;0.19860334488744863
2876296;163.72165237931861;176.71227441336265;121.84135451011179;0.22125146333723827;0.19848847071704975
2876328;161.84253040545576;176.73610860507739;121.65950198966117;0.22227833167377228;0.19865917053759857
2876359;161.51925784282523;176.741494626549;121.65577954071756;0.2220664251750383;0.19867551787997792
2876390;161.02044718981574;12.047396324107286;121.66084193238267;0.22196207090399242;0.19872844062082715
2876421;161.01010714750956;6.8298012129584178;121.67676397351055;0.22187428695408004;0.19869815777643279
2876453;160.82362406565065;7.2655022656636508;121.67780717857002;0.22189188502036109;0.19869759855913632
2876500;160.63027962680641;5.7376308866197006;121.64638556995128;0.22224975902856331;0.19869386348621279
2876531;160.66361127837152;4.7010110156122167;121.64105265360858;0.22198493316560783;0.19866463229178388
2876562;163.93929585632125;176.69800411768122;121.63162308514343;0.22209193954012058;0.198184920840283
2876593;164.0452576252811;176.69631979189492;121.64903489163432;0.22204657304516434;0.19815166017512181
2876625;161.78565045114274;176.73328783803805;121.66196036579288;0.22204503994426905;0.1984414907659644
2876656;163.27167048957844;163.01676214633753;121.65463017477293;0.22195295432926981;0.19824651991301992
2876687;163.9248843176687;176.69840188224762;121.6551824185488;0.2219342106735378;0.19811930730631447
2876734;164.38956375783459;176.68900090713979;121.65920656354692;0.22196198367670489;0.19802199994163244
2876765;161.46378183649728;176.74224815450427;121.65096205071205;0.22192378434995561;0.19844443363409739
2876796;161.14120537090494;176.74846084098738;121.63170740517604;0.22192345466298261;0.19847670520872615
2876828;160.76037985680279;176.75696731202484;121.61590516528148;0.22191077913543938;0.19852508328030313
2876859;162.01586776687304;176.74432157416436;121.54107251796224;0.22202766809054383;0.19841552182533867
2876890;162.07669458718397;176.74384269748376;121.49325495612747;0.22200371254705822;0.19839631714331457
2876921;160.00372816171765;176.78319313429634;121.53832322793011;0.22191280095450136;0.19866805607535484
2876953;160.20269553178721;176.7757308608754;121.60792201755191;0.22174098616061277;0.19859942765136138
2877000;161.0911952788548;176.7603000096687;121.72176963734303;0.22155568794632752;0.19847146927964895
2877031;151.6706382450331;164.75876879226314;121.89400526253469;0.22136010424140157;0.19950133465472211
2877062;151.32338320429997;172.65566312992377;122.14702051383253;0.22115743374583427;0.19951780150512888
2877093;128.65570752067049;175.64343953620767;122.26188497972542;0.22141376772059376;0.267693888617963
2877125;121.70450635483738;161.92239456481937;122.41377158391772;0.22131585012262767;0.23277134907162003
2877156;94.832055965158915;164.44587480173513;119.61489523858818;0.25111169194165095;0.24100706672960945
2877187;83.946133503986587;166.34248186878779;122.66212839204266;0.25124977815173066;0.23284198173611764
2877234;75.064111225720538;162.14717176484928;125.28618245717512;0.25141773529652212;0.24578990323745037
2877265;83.5126613651088;151.57279306939165;137.95641922327272;0.24641824039181975;0.19804009485969756
2877296;67.963079891562316;154.05350699255575;131.24507858582732;0.24920613008740819;0.23817120548364021
2877328;74.988461548723961;152.42065314257664;133.86005291583723;0.20794031469749733;0.20782983812262898
2877359;72.085736608870292;154.4918823739001;133.78124258269176;0.20762419809620292;0.20611651691793811
2877390;70.39309121769756;155.93526161419291;133.62753670915706;0.20720115144492249;0.20499023047514645
2877421;68.865683077765453;156.53872261477943;133.87066727777489;0.20693405967218548;0.20501015185311081
2877468;67.87470152809064;156.39194018544592;134.33846729834335;0.20668007122713489;0.20561940511246485
2877500;66.866992524564324;157.10538511241484;134.1041212908579;0.20707741328253754;0.20586614564965902
2877531;66.165592685468226;158.67435810147552;133.92724642845448;0.20733691800689313;0.20615750919716178
2877562;65.622728270601044;159.38325458882309;133.76869756927167;0.20745930720788117;0.20653199144546625
2877593;65.238039809612758;160.9891392790355;134.20058535903769;0.20757803923480786;0.20685166191971371
2877625;65.043608338565463;161.8077554253324;134.34899784621561;0.20767279100166544;0.20700422810272873
2877656;64.936182624743;163.35390032340814;134.26505685241898;0.20766643592862774;0.20725665934065377
2877687;65.004248940487841;166.17791971757387;134.13186529389373;0.20773084846627143;0.20755809802858083
2877734;65.298320897199815;169.24660933393739;134.66428425169409;0.20757273676173216;0.20797563718195258
2877765;66.299033401516283;172.78074252297409;134.53885866230439;0.20762477080690028;0.20834676080043146
2877796;69.1281808485678;173.90280768370755;134.62988522449976;0.20751970482399165;0.20783446779556808
2877828;73.405814533212151;168.89587975810858;134.71975270386213;0.20755537752337069;0.20911502014422073
2877859;77.428471291112459;167.03334773030915;134.65344875441156;0.20760324536844579;0.21115326336872675
2877890;82.805288747345827;164.72189500029015;134.57929367020162;0.20772563333729055;0.214051652303544
2877921;84.584592420231616;167.39543399286981;136.97910914014111;0.25932987770329879;0.19879935928427786
2877953;76.333469920078;175.25240064873864;129.39164432701116;0.25744443130874139;0.25137927025832024
2878000;82.4945812888443;173.56545383466849;129.1783772243312;0.2575933395164014;0.2408403218245036
2878031;87.065227956046328;174.73823102536488;128.6322323435617;0.25821980473340422;0.23824075567514819
2878062;92.9776578893114;173.9536208962995;128.1576933370192;0.25970515892125007;0.23486567195209185
2878093;112.57709182057779;173.11137873500968;133.14479973470753;0.27019825630490146;0.20050081068887887
2878125;119.24934127548259;173.07437629017724;133.06314354010522;0.270261813495306;0.2003820764197787
2878156;119.67864597861302;174.93367657132251;128.8870769784975;0.21626258561203204;0.24564632279547638
2878187;115.55600077408531;176.12369307968552;125.77099022902841;0.26670935077675462;0.20545141638325243
2878234;119.06548976251931;177.35067083412179;125.66389233622078;0.26737117292236856;0.22406439724929084
2878265;124.98301248483864;174.52375385259367;125.54867418887775;0.26784714339964766;0.20234381995803519
2878296;128.31946147104384;173.07896137047729;125.44712471360371;0.26823086329697593;0.20021216691028362
2878328;133.19487604849871;174.83781685026352;125.2357238925887;0.26828546003776071;0.19988637005215817
2878359;136.52758345250496;175.89736788431284;124.83212440572684;0.26821861573165007;0.19952796870326633
2878390;143.33533315497854;152.74370671837784;124.47993024619792;0.26815100511023282;0.25111711472894066
2878421;144.20760799974065;159.81659934941322;124.3749196828711;0.268177590149307;0.24901662592494159
2878453;146.22884715387778;168.02858291990586;124.35336215505441;0.26820286681321226;0.20668632124046441
2878500;147.40989013031415;168.27595053993204;124.26385196052647;0.26824981204076243;0.22288235270361323
2878531;148.13158877705939;169.75560444197757;124.14456586459806;0.26827434929110688;0.22695930089615302
2878562;149.09040042157398;169.80817806688137;124.11336727832543;0.26828405453884241;0.229113112658914
2878593;153.92044565232413;157.72455828204454;125.90305553436735;0.26589377322189578;0.23761238796774781
2878625;157.1749462284206;150.38328282909893;126.39323780114538;0.26379108804158552;0.24242775401572472
2878656;157.05862715525188;156.00119972150168;126.61703212940472;0.26267574268796773;0.24131673442026977
2878687;157.15690065178126;158.58320115891502;126.72879853838624;0.26241247171628196;0.24040272168271903
2878718;157.21516499741705;162.20203994088359;126.86308585472897;0.26289247626757917;0.24012331424502
2878765;161.31231452552481;147.08481330931645;126.92870751873544;0.26297327660441816;0.24478166681137159
2878796;161.85715977717024;144.6134233954289;126.96317369635807;0.26307299654316546;0.24474893729887165
2878828;160.72774145018778;150.97368325834759;127.0069886848468;0.26367796813903716;0.24010389039877728
2878859;161.81007706159147;146.45864694799138;127.0439531006202;0.26338795919348496;0.24251217743820086
2878890;163.004384154565;142.10288404549951;127.02029404717064;0.26348847521380997;0.24458301669531085
2878921;163.14741523920469;140.00044942524357;127.00190728236855;0.26339729752541097;0.24489835380852523
2878953;163.34725606720056;139.03692434738019;126.99714965696819;0.26338220337677121;0.24530804844620044
2879000;162.23872689628527;143.84577652246418;126.93065153511002;0.26328740402491507;0.24397010937406924
2879031;162.51653846811971;142.45106492628096;126.93736331743536;0.26332405625055955;0.24460028380865195
2879062;162.70850218292745;141.5633301760775;126.96968778190366;0.2633157660973664;0.245163248152791
2879093;163.15213364242979;140.02781146045317;126.98141885132604;0.26321828601880576;0.24592122144437895
2879125;163.12768677056309;138.24309056742524;126.98082223790688;0.26318816135453482;0.24606814801769808
2879156;163.19207486307215;138.97956753014506;126.96755419100741;0.26288657772498092;0.24628220325558289
2879187;163.19949102280256;139.49767011260613;126.95748811950111;0.2628554732850506;0.24627760792864251
2879234;163.37402728232962;138.15894129461725;126.96956933864257;0.26288689214248362;0.24652473443244319
2879265;161.00180042565012;149.45388525587771;126.94860714295346;0.26285711466135253;0.24167358308098064
2879296;162.10437564751578;145.34494429441418;126.98676110481203;0.2628604965917743;0.24401076498780994
2879328;162.35239889429764;143.21903118300995;126.95353200426114;0.26265533964558863;0.24476254116175109
2879359;161.00323724688084;149.85160592843073;126.91163359185313;0.26339741055775173;0.24089313375332003
2879390;160.24994829709;152.41836301087673;126.86400090944947;0.263749378444221;0.238714406059122
2879421;161.5779877305875;146.09340650378488;126.83153852516163;0.26437767083632668;0.24072915104567114
2879453;160.46789599651922;150.56891679807586;126.825582707477;0.2643430320213665;0.23871488509985372
2879500;160.05719144710022;152.07962287013282;126.80888107699647;0.26428879833005003;0.23822827404054042
2879531;159.95183838547905;152.23242596838486;126.76986398502157;0.26404978481238262;0.23833622764748869
2879562;159.63979859409932;152.17355541909248;126.78431180460066;0.26397311661739808;0.23790589715039556
2879593;159.33404211715714;153.88989838103151;126.78391360747068;0.26396848747236573;0.2375669245837598
2879625;159.2346448584714;153.90429827227973;126.77315911748495;0.2638065681498844;0.2370482051235529
2879656;159.0833508350911;154.67389327892371;126.81563516116397;0.26366392465441785;0.23686749462935366
2879687;159.04960193071659;154.61897348456122;126.81264655651397;0.26343778615300895;0.23704899128541049
2879718;159.26025671928767;153.71493347108927;126.78616765682243;0.26334083825443627;0.23791314262801283
2879765;159.31592008296678;152.45885410596915;126.82860573876118;0.26323366072665538;0.23859349622461681
2879796;159.14416925501271;153.77097044072545;126.79176976832166;0.26297868748227465;0.23807902961145291
2879828;161.62341993080889;143.6287540040299;126.80325182540719;0.26298453246778958;0.24195494914293275
2879859;160.25234016776781;148.98696942914805;126.77331644022895;0.26283757403778768;0.23903888817915128
2879890;160.16973912756865;149.70490598524873;126.77471830947938;0.26279241432542866;0.23925391138008662
2879921;160.18134328336183;149.63453329358759;126.794610190783;0.26269477753440224;0.23947568880281878
2879953;161.0437781232709;145.66860651376007;126.81574478387242;0.26254447547659937;0.24095957467736739
2880000;159.92867624097556;149.14774940267026;126.80282472992568;0.26229069033412156;0.23919460944022603
2880031;160.66919964927689;146.22366616818403;126.77358107656049;0.26216625278571387;0.24214240061343967
2880062;159.82987743758935;149.60418504216705;126.78193289767914;0.26198974241040374;0.23966682320411106
2880093;159.77861776264356;150.04947335153398;126.76180138002424;0.2620064032095909;0.23985725988255413
2880125;159.29121373384862;150.29660122219596;126.74835813524005;0.26198578091900548;0.23898812699855326
2880156;159.31064197433051;150.74706415942944;126.70548306619547;0.26172954929228104;0.23978591880308597
2880187;158.90001550130128;151.41351549300794;126.67247605966956;0.262008640446949;0.23922250785587595
2880234;158.64442863392708;151.867721482264;126.64121437614688;0.2619110926179623;0.23890041307117702
2880265;158.6787057145973;151.3846409508985;126.65068893443684;0.26178467181565618;0.239725929454042
2880296;158.50268443524493;152.15939146546984;126.62076272891738;0.26212832773833494;0.23895492245910377
2880328;158.44345661390406;151.96332158311014;126.65126222262303;0.26207364041098935;0.23900866946616742
2880359;158.475329628708;151.25089986097393;126.65046846297018;0.26188112744934988;0.23983210685318615
2880390;158.02262444280152;152.62821982085222;126.63822276667598;0.26172259838715212;0.23883776945611912
2880421;158.09486307986947;151.76337031214572;126.64269963820354;0.26158742890448439;0.24013333948543753
2880453;157.60608555493133;152.25602254156274;126.64081917879381;0.26232831581216726;0.23946962868032043
2880500;148.73225292148345;170.74272373371409;123.76331926612357;0.267982612120851;0.198509644096813
2880531;146.87871811724338;159.87338915279122;123.25609090755353;0.26796255638603761;0.19846601423147672
2880562;128.3583470328571;169.34291554105158;120.7500074157918;0.263375128227722;0.2005199800968917
2880593;113.87405945287945;171.94579195700484;121.14862404242808;0.26298080167312621;0.20008266969754265
2880625;98.3763972730708;166.02097605477491;121.33660750856531;0.26227080913584272;0.21173227832176436
2880656;81.552810974905469;167.0976047269173;122.36433830009186;0.25935588985357344;0.2363755810690944
2880687;70.71935990711907;160.04609030179805;125.7611175231437;0.2586030459484196;0.24876799420859333
2880734;77.121756310372859;156.243108038031;135.78550014429499;0.21093898411769146;0.20537992188618531
2880765;71.4673559026949;153.26753016150192;135.99779857376763;0.21016984003562858;0.20345984664233369
2880796;66.067680355048466;158.01907918697654;136.41963946211143;0.20904733347175447;0.20220354518896327
2880828;63.457779679372528;158.16163745711364;136.29111539219238;0.20863699781858872;0.20620466891304817
2880859;62.457587505652505;158.46345237962171;136.22552101594141;0.20831811939470746;0.20604133234317992
2880890;61.593238826474376;159.70122797200941;135.9696156925416;0.20827492889075558;0.20780215437053576
2880921;61.011582366410217;161.00361948356925;135.92055790269779;0.20815101011722881;0.20894418311848434
2880953;56.055989338766125;165.01021983506811;134.88228770956027;0.22706768921569032;0.22198853718155059
2881000;57.669252136845053;164.58772370172147;135.30641953255633;0.21953401192226416;0.21742155344707831
2881031;58.229166592732781;164.28806891677158;135.3956540030739;0.21602442386195783;0.215992425586544
2881062;55.546991285386262;166.64715665612178;135.28771652287392;0.2263836774185444;0.22355906138475948
2881093;57.316015166787722;166.18307535876582;135.67543423869216;0.21863817738482644;0.21766682724197287
2881125;58.05253623623441;166.36699574674694;135.89747939576395;0.21558270397756765;0.21591475708177671
2881156;54.672316071209046;170.00049073846421;135.65177345572263;0.22858691054455646;0.22841087009779068
2881203;57.049506844370875;169.43386723566272;135.65758183415858;0.21862250872879538;0.22111092213462072
2881234;61.693661327508835;167.18471269512094;140.96998392863728;0.2235971453710279;0.19639040887502457
2881265;52.677090578770738;178.3634825628049;136.1933690174175;0.24027003623943566;0.23781840390945475
2881296;59.0325515781268;178.08304309312169;136.63138565084262;0.21767538265542766;0.22061224222488046
2881328;62.357219769220009;177.00640881259702;136.75473126937922;0.21586862314376659;0.21858491084163734
2881359;66.206524066815064;176.26110283285772;136.79781056812328;0.21477357370402636;0.21744121623530854
2881390;63.839064186682045;174.88603215198805;134.13074923415076;0.23953256081418206;0.23646706636499798
2881421;75.1771762807463;173.48993066003695;138.41801464612357;0.24456103418357433;0.19824139757694576
2881453;81.200692155488042;173.5199332164444;138.419267393291;0.24554392462116745;0.19870425300172248
2881484;87.272291113555355;169.00870674413659;134.30116590657138;0.21352784638124198;0.21831982871087613
2881531;80.224245422302729;174.86049086350175;131.2671410164991;0.25159339202052611;0.2448963670887315
2881562;84.378824475674364;178.40844724358044;130.64950510151877;0.2524017219435894;0.23849471151896934
2881593;89.0492445290662;176.60976242222358;129.61712841503106;0.25367354334010467;0.23545769075512338
2881625;94.979468142825255;173.37067910904986;129.18005801133151;0.25500783951052058;0.2319430387964288
2881656;98.551060683539731;175.92303971364191;128.85881123002517;0.25637620808808387;0.2313365825314945
2881687;103.52143121401963;177.79327537213251;128.54033504276916;0.25934110066557653;0.23613773799928484
2881718;108.5616098840264;177.36622857737893;128.24454717982897;0.26153280380965083;0.23483016664812378
2881765;112.86812704567957;169.65081453632794;127.94111977546278;0.26181016199355128;0.23200795448773626
2881796;116.73882311089629;170.3637843757345;127.58653674214759;0.26216189454564731;0.23125886295271589
2881828;125.92332312313837;171.64852356192549;127.29136988103524;0.26392468266191732;0.19986093485590864
2881859;127.24462511396381;176.56631545673815;127.00820125021059;0.26661135547637216;0.19972636312826683
2881890;131.38841328742333;174.90046131880231;126.72633640905605;0.26745066774499188;0.19950283203638305
2881921;136.30278959919542;175.55500178152397;126.59316802674742;0.26787788982046445;0.19916663032210788
2881953;141.08890729235841;175.76914362101203;126.45366919134858;0.26789911775037223;0.19876319230988288
2882000;143.6185236417499;175.27563144684748;126.11130482092193;0.26792476080171052;0.20149749095338726
2882031;152.15370583311199;159.22992030435751;127.31367441701748;0.2629556412243596;0.24769656438897211
2882062;153.19802243353414;165.83334940693118;127.58538337964988;0.26153756361512448;0.24809857261278059
2882093;154.90786727647532;167.1033823833111;127.69579579025874;0.26143101315348449;0.24667214365032367
2882125;160.85532441278548;157.82518284765794;127.77307382379924;0.26173608770295925;0.25091036595445487
2882156;162.91824679913736;153.63687759153461;127.82882949822198;0.26244512604671388;0.251222489864177
2882265;167.93229551500511;143.17682577693265;127.83174758558035;0.26338394959054134;0.25352012921821515
2882296;168.056132131871;143.18925203568151;127.79804424362744;0.26485438364800051;0.25272988651412476
2882328;168.00906274714251;143.04339758405703;127.74695164309767;0.2652963509246436;0.25216063525610455
2882359;167.57110802292584;144.15244142419815;127.7016005049437;0.26630126650972641;0.251085877680305
2882390;167.36660219392067;143.35166359028074;127.62101685181511;0.26618155026236728;0.25095846697570173
2882421;167.05663099152667;144.32374822282461;127.58669320036539;0.26589770346358987;0.2507670119846962
2882453;166.79986226431726;141.4362580334388;127.53553782785585;0.26587932739369513;0.25039669690148897
2882500;166.60760049863586;141.95985014310449;127.55804977928328;0.26588186197242325;0.25015367715841674
2882531;166.30834555641232;141.08107048454369;127.54404556874025;0.26576000043554682;0.24960023679506876
2882562;166.06131836725456;140.200772710834;127.49546478115009;0.26594258015275329;0.24897657561688655
2882593;166.00681101246295;138.94953955242977;127.54496855599457;0.26583624877714879;0.24837761865672547
2882625;165.92230757766828;137.8671088377881;127.53812609353132;0.26577448863968062;0.24826397616572213
2882656;165.66318625084946;138.67029833300194;127.47163029684052;0.26608222099183848;0.24769214662975109
2882687;165.56281544362705;139.49135440353808;127.47029900298995;0.26602575427424552;0.24768174259022963
2882718;165.32207426207805;141.01083287086277;127.44990892268295;0.26603065414530186;0.24748078198757895
2882765;165.18684164188809;139.77088410831274;127.43939735108566;0.26598722210969394;0.24755685204629324
2882796;165.04072986732322;139.5588733112742;127.44758941359089;0.26576531854569968;0.24769712049185771
2882828;164.26211930099453;140.59939502146716;127.46026654454262;0.26573888269218032;0.24741679354263882
2882859;163.80760592346198;144.2404123540444;127.4325267971316;0.26580113200869188;0.2463138669030038
2882890;163.6604766161378;145.1534153511069;127.38811936024139;0.26577310833550211;0.24583631052748087
2882921;163.32135306524273;145.57577939223424;127.33365065461945;0.2662283334387463;0.24472417510843827
2882953;163.12507038437428;146.01238212585571;127.28723542400472;0.26679292122021314;0.24393547817531075
2883000;163.22649685622153;145.93777501934434;127.25922489632933;0.26700933693130163;0.24364412654580619
2883031;162.22209951635344;150.43496186349009;127.2191809062298;0.26701291008036226;0.24050711161218394
2883062;161.76194246758774;152.193260322612;127.1997098176745;0.26703288504878031;0.23929532526226394
2883093;161.77023977530388;152.4132848050885;127.20396444463412;0.26703551218331739;0.23929730572744226
2883125;161.55099975630142;153.26802587038381;127.2164059500134;0.26703912799499652;0.23834064834183949
2883156;161.60100358952408;153.71510605557097;127.21306325975021;0.26705031263136497;0.23821911887078284
2883187;161.45941535425985;154.1679991973657;127.20978478865814;0.26705525114757417;0.23754965644866308
2883234;161.29150919888011;155.28784601086372;127.20592482635382;0.26705283087574666;0.23733275255484587
2883265;161.19840766464819;154.17603898376959;127.21741180416572;0.26705097188590921;0.23715924206328509
2883296;161.09078712697749;154.11316821740525;127.24091866602703;0.26704925915645578;0.23702741794842305
2883328;161.00374919124764;154.00102076395723;127.25977858823131;0.26704604456155312;0.23693246243731386
2883359;160.95069731492433;155.45837151276257;127.23661860160568;0.26704926866793283;0.23689300562837376
2883390;160.92717535646617;155.40242517714242;127.29710593872849;0.26705157837763505;0.23643100070826653
2883421;160.83868229370989;154.29970660909029;127.27238977378188;0.26704920564417517;0.23627074685450772
2883453;160.75337638008966;152.50406658826026;127.2444697962849;0.26704331428423866;0.2362266437633167
2883500;160.47663082283461;153.15681374399449;127.17579917808385;0.26701422182040929;0.23624168245690733
2883531;158.7679511393365;150.05774670795;127.00035736723918;0.26693647727536052;0.23275210654059808
2883562;151.19935741712959;143.91328191668092;125.39261003962865;0.2493915204344814;0.25076912445822314
2883593;133.39573390764394;168.19285076289674;123.34154567064888;0.25939835609243755;0.19868358950354823
2883625;117.5241150944495;172.22900451186783;123.38340667511804;0.25901946040433538;0.19917250251352045
2883656;102.82178462468224;166.33865942028479;123.51715962896368;0.25829710703260306;0.22374451039959553
2883687;88.183877670375324;169.05492186270104;125.35773600163402;0.25432942594656127;0.24113880466165868
2883718;78.754482983253752;168.88152951193979;129.33318442842764;0.25014982130469987;0.24155017205771329
2883750;69.206390348523612;165.19723256359336;132.19910958526714;0.24785382358673991;0.25672350790703352
2883796;66.872018884074308;163.32845628247802;137.43927903227964;0.24116805397341928;0.23649747484762815
2883828;61.534220958759072;162.99385808778689;137.4965417430744;0.24006391127276514;0.23651043549606865
2883859;57.5102743503016;163.88659000716035;137.55630724732092;0.23865151412034427;0.23561766734870643
2883890;55.547494784656251;163.23316935163911;137.90401842558237;0.23724964596931517;0.23638788436925506
2883921;54.181635305641073;164.200164120625;138.13533392940559;0.23618521031514939;0.23646832521317407
2883953;53.470295566163657;165.79994534819736;138.42360437771637;0.23562165931998802;0.23553578952224635
2883984;53.250709401278073;166.82767980226549;138.73765677169837;0.23473620741702642;0.23568065929832852
2884031;58.067179489465751;165.8353779715103;144.98026714635736;0.22406334395645869;0.23069481250586205
2884062;52.457751260317323;171.68255422156264;139.98579639974489;0.23193106438787239;0.24150111111589645
2884093;52.520699497110513;173.10589976075355;139.94650816026527;0.23197623552630978;0.23961508240995169
2884125;58.348928081981185;176.80850268083225;144.32952838750705;0.22416213814484828;0.20191109011659236
2884156;58.773679635905161;177.96733567747154;144.58466892587128;0.22410789353542304;0.19970586831959308
2884187;54.169964311282008;176.78354317652844;140.25751075083343;0.2329173036844259;0.22739442260879808
2884234;54.408322429113824;176.41054475941289;139.77177380582441;0.23323946532805642;0.22842103756443835
2884265;54.679521457637684;176.016062679336;139.46817318325049;0.23386186426723118;0.22936090972808293
2884296;55.863306288749648;176.48348333512158;139.12695554555029;0.23506404447603627;0.22984717859231926
2884328;57.803092383941348;175.15085783330281;138.78189013919126;0.23646192453135578;0.2292753056750951
2884359;61.02950475038535;177.049645541473;138.50222666841913;0.23773764943097989;0.22985926680508395
2884390;64.195086931890174;179.31559998586792;137.648468451089;0.24018076406211905;0.23236108743546852
2884421;68.556578057953544;177.75063190681414;137.0260135007627;0.2425485926321003;0.23100746607131018
2884453;72.565995102414732;177.42179695461897;136.3153122379436;0.24478949521547991;0.23192887511453905
2884500;76.708348856341729;178.23422498987085;135.49052251839643;0.24730358128252888;0.23461124793769059
2884531;82.009226250632565;175.59295750859346;134.79598599556539;0.24948740701767738;0.23403711613459011
2884562;85.876796373442289;179.58181264724374;134.01828181387828;0.25134675647296711;0.23899438110382942
2884593;91.093274683939939;176.28708374294916;132.68793776156181;0.252454635375868;0.22884611144050804
2884625;94.416954530345549;177.71883824759908;132.154085943013;0.25305397138150376;0.22861772763620039
2884656;100.74756999940333;173.43128204691772;131.50883054450887;0.25483211872131967;0.22030353001030315
2884687;103.79745709086227;175.6584820018401;130.93774051723511;0.25725020105129015;0.22434222914450072
2884718;109.15513996940261;178.22161943054078;130.66001646163775;0.25940816282466106;0.23331949688711778
2884765;112.98752447826364;171.72819345946616;130.33448583298866;0.26038844207972145;0.23187038695225312
2884796;117.95224122566181;171.95702748111685;129.98764687674509;0.26151044344243468;0.23099689882027155
2884828;122.21476149554781;173.12546240565879;129.53020095444546;0.26463776144222323;0.23084452543195344
2884859;131.66903550092454;171.74726714773129;129.16202049879206;0.2657119792569701;0.19938152350020258
2884890;133.40606450236865;176.4514652887479;128.8980723745772;0.26616840219547988;0.19924611748649415
2884921;139.47758252113306;174.5640517396956;128.59395529689894;0.26764966758835279;0.19875441290412377
2884953;141.31770408928438;175.54752672906889;128.29004395551104;0.26792341358752553;0.19869072901685889
2885000;146.91856471410193;173.083507551783;129.20007987086086;0.26643586243961104;0.19853692354422517
2885031;154.77497888677786;157.93989218134516;129.8443387052325;0.25242157296175338;0.255255312508117
2885062;155.93800412081447;164.404339629081;129.90917731979636;0.25752069670378791;0.25145639132001307
2885093;156.82091946679174;167.67987098359964;129.77032101764559;0.26203645495401429;0.24557168535297549
2885125;161.53316941685932;159.25565772097838;129.71391015545251;0.26467282663064262;0.24695017080881962
2885156;163.80217965674419;155.82276003125;129.56210968290353;0.26696410221852379;0.2466912769032652
2885187;165.98422194992381;148.90207153338122;129.33199942278452;0.2671086409378467;0.25019869999924005
2885218;167.51321287218823;145.08241978800311;129.23504099900796;0.26707081519678644;0.25100955541169445
2885265;167.68381350552167;143.96224498597462;129.08746734685283;0.26700193950950563;0.25163428537760413
2885296;167.7427311352732;145.13220791731121;128.98011900861945;0.26695295684936254;0.25214658285221742
2885328;168.03255226665951;143.71102064232449;128.95148107317948;0.26693029460535339;0.25249289000410341
2885359;167.81563507232357;143.44778841159609;128.84954009824909;0.26686800693690471;0.25274891910905967
2885390;167.79085876516402;141.80811223461981;128.82064811973186;0.26685577699193774;0.25319210454742758
2885421;167.74938311030064;141.14317662695117;128.8060855531229;0.26684817180883263;0.25322224063655141
2885453;167.57292069203973;139.56953128481825;128.6543182080911;0.26683925863243274;0.2538186674534923
2885500;167.36410802391819;139.75101410375686;128.64790230763327;0.26682499986774511;0.25390066694647762
2885531;167.16382895573966;137.80422694769371;128.63887988950089;0.26683044380793447;0.25381478482995135
2885562;166.71210579968579;138.09938270986905;128.57165245768013;0.26682183757355382;0.25406880142222915
2885593;166.57760523974045;137.90601106790987;128.57569522824349;0.26682793280135053;0.25383853542484536
2885625;166.3665122549248;138.7074674906749;128.57204672190707;0.26683175657270319;0.25354502907224341
2885656;166.25338655627309;139.85314615686869;128.59477711319175;0.26683635944696849;0.25351970269185659
2885687;166.1390842437545;140.52260728752512;128.59850784287275;0.26684032057248547;0.25336460248715664
2885734;166.09761993560798;141.29617194835447;128.50898935390535;0.26685713338908579;0.25330210629085226
2885765;166.045615691708;141.81852277399383;128.54752574843727;0.26686644403288318;0.25303946573735364
2885796;165.89523017505749;142.27429046975067;128.54974331288665;0.2668619222836896;0.2528422833744241
2885828;165.80354957838335;142.64531844866511;128.53674815087734;0.26686020187735471;0.2526113682953815
2885859;165.722695881258;142.64765372337755;128.54142988939083;0.26685849670238487;0.25254966676873036
2885890;165.65175120571593;142.85167298035796;128.52089532852159;0.26684934497748286;0.25246826167965691
2885921;165.60605888894284;142.46381144166929;128.52863648005692;0.26684400654400681;0.2522167343494795
2885953;165.55563060717128;143.17429089618088;128.51269731807074;0.2668426664722916;0.25211990428537084
2886000;165.49290350660019;143.59282503081684;128.51055755885437;0.26684915515253488;0.25210873248636634
2886031;165.4208285448868;143.35045662407458;128.43693472400423;0.26685517907084666;0.25203614406609515
2886062;165.34732408132007;143.44907522416091;128.37375993028698;0.26686973536534586;0.25192220217402689
2886093;165.29537457928973;141.89950693575781;128.3254185057171;0.26687304252486332;0.25189255049541059
2886125;165.27911601572117;142.84541171295572;128.3250927233382;0.26687766413633973;0.25187018392576355
2886156;165.17860839123327;142.56660771179674;128.29112749014212;0.26687472542087576;0.2519353934921042
2886187;165.14105085897265;141.589213553581;128.22921807627961;0.26688878888256645;0.2518495267005606
2886218;165.1675237759394;140.8368068679969;128.22919725567658;0.26690889569414611;0.251775634351165
2886265;165.14707975032408;140.72644451199028;128.19858976905741;0.26691505111443764;0.25159214261156282
2886296;165.02459450435057;140.85942674505844;128.20383823723702;0.26691917682124888;0.25112694346731873
2886328;164.19283693895252;143.81691668538292;128.19245129433341;0.2669262511971528;0.24913336507644102
2886359;164.2850270938373;142.3254795770834;128.25978361422537;0.26694180639668308;0.24896168356336917
2886390;164.30312145156782;142.77065006268674;128.24048601755698;0.26695337520064488;0.24891283332809897
2886421;164.46807075993425;141.26164968579195;128.26382297812111;0.26696061646708769;0.24843021514944486
2886453;164.31586937346026;141.38241521516048;128.26701698607417;0.26696768877602778;0.24819352977727116
2886500;163.90720640002331;143.67948066667523;128.24947914042889;0.26696928043784485;0.24777271047320548
2886531;163.69810717262536;145.46608243806935;128.24745081465326;0.26697586132544;0.24642035052234845
2886562;163.57987941300328;146.05998049313541;128.28510328010668;0.26697995618394371;0.24636901076502887
2886593;163.42599227234078;147.24892564025333;128.26785134564619;0.26699732566017259;0.24627122871560253
2886625;163.35840275948837;146.62832417254981;128.30149064698941;0.26699947868910262;0.24616337618378384
2886656;163.2693106521788;147.01108600985583;128.27915109228786;0.26700279188161252;0.24611127468393235
2886687;163.54456565000643;146.54773050599729;128.28385658429693;0.26700420476481745;0.24645602602118322
2886734;163.44757225269223;147.13491851317622;128.28955989187611;0.26700598508464984;0.24632223497940875
2886765;163.3949171813897;147.32886762163523;128.31348913960792;0.267008536772349;0.24613031002095021
2886796;163.34102033791095;146.88330915108836;128.31439862260453;0.26700723406874693;0.24601671159974636
2886828;163.58720762935965;145.96727674428666;128.31111473651166;0.26700824852505278;0.24620874508365273
2886859;163.57297672187406;144.60918303792292;128.31100865166627;0.26701143595133964;0.24616318198426185
2886890;163.48637706487637;144.02038978044092;128.21336765779793;0.26702184691381908;0.24620155520545195
2886921;163.41804979253723;145.2454651603517;128.19317810487752;0.26702227499301862;0.24622258328297145
2886953;163.33597367242717;142.39983911569581;128.18963777833477;0.2670191113326153;0.24598268650475616
2887000;160.46695599026319;149.14554998848638;128.25231891134985;0.26701229956300437;0.24013730406719896
2887031;156.84651831408525;153.58003281485131;128.20419436528391;0.26698505512367049;0.2266890812116579
2887062;147.73906877958416;160.93241911341946;125.17569232776009;0.2672088090426108;0.2053610804578708
2887093;132.16894261960422;171.50571438982033;124.33188092465225;0.2670878652089706;0.19841129763832566
2887125;119.53022366449991;167.47518275114166;124.33314850536932;0.26624928812286397;0.19896842350586663
2887156;102.97545450288428;164.98847407585518;124.08564643876322;0.26234965522102083;0.22597570925584962
2887187;85.9676384721342;169.80364013658615;124.97756760294713;0.25653333405882933;0.23782147122215075
2887234;73.396344320712444;167.78108761889735;128.3460366190786;0.25346293007612686;0.24460374336094193
2887265;63.999985960601094;168.04694436492963;132.36195253295909;0.24705188258562535;0.25009593619968573
2887296;56.916689586418286;171.65032542786906;136.62610536150683;0.23983197821528815;0.24163945690875868
2887328;61.401838362379934;164.92959245171386;145.36780376807178;0.22350812171912945;0.19574264232992986
2887359;53.393696044864086;169.62867196615363;145.5456234346461;0.22305417504769359;0.24687087251776094
2887390;53.387512892611589;152.68748090695806;145.56181055660582;0.22238032621108655;0.24608862788722277
2887421;54.07758774062075;151.41526300631193;146.47299428026764;0.2197641596032919;0.24094602853018618
2887453;54.540660721156222;153.57697899231943;147.14281470364833;0.21841651555498087;0.23798258253967547
2887500;54.74150193199732;155.87374516261332;147.47690133493214;0.21760485665547796;0.23683531563539792
2887531;54.961343261598365;155.90831193270697;147.89170562689856;0.21707106396465112;0.23568791137520886
2887562;49.218879636486953;158.38874126708487;143.40281079951384;0.22783456209644268;0.26424657282115288
2887593;49.213697312983385;160.54162692471988;143.46758714930169;0.22812919493260059;0.26434268230206881
2887625;49.304679969548346;161.35623676674817;143.7486062344388;0.22831182990050503;0.26444805479315753
2887656;52.803672574038849;158.87690259263516;146.31755454053712;0.22121390547419989;0.25102233680822472
2887687;56.6637820822357;171.61585727035981;146.44163601178914;0.22189446940532151;0.20057170704139213
2887734;52.927011191408639;173.81575856751246;141.06396587077612;0.2305741281277002;0.22493202057888673
2887765;55.257166892102411;175.55073646558404;139.17411561408855;0.23451899384563593;0.22827383785148561
2887796;59.294004277456985;176.13498288564941;139.02384996778329;0.23543832935363251;0.230219893076892
2887828;66.575016431994129;176.05465098247728;138.84453593169533;0.23762291731303442;0.2307848180136565
2887859;70.192317051552152;172.72223541708215;136.26327815587527;0.24427985569081642;0.23453387608959242
2887890;74.4547356990735;176.23356376401131;135.24939376409338;0.24680806812422579;0.23785892406250961
2887921;80.176889364828241;176.49589461728567;134.23141109247339;0.24886708571993274;0.24889412361713542
2887953;86.17972854096584;175.50565387260471;133.31116053201615;0.25087274962638645;0.25458899047939626
2888000;91.896945605294832;173.40604800758854;132.38335835956272;0.25263770675647379;0.23742147930080332
2888031;98.116395484997085;171.84389878547768;131.39995585421954;0.25413533525936094;0.23532337892175664
2888062;103.99818606623758;171.20117870286867;130.84420960718347;0.25626209804852113;0.22987139065292211
2888093;109.10759331562819;173.91618811258306;130.26274323604639;0.25822995128475368;0.22308379204648707
2888125;114.92157813337589;174.94623856646271;130.11284545910283;0.2596857478594114;0.23326220237980913
2888156;119.62489822007312;171.19629932168166;129.76947924267572;0.261470461155323;0.23335633244778342
2888187;130.50562662824672;169.41902233276852;129.55210282440038;0.26252997736516587;0.20395497041197069
2888234;132.05446651419007;175.00756673257487;129.25547785474907;0.26384696722017542;0.19990754045873818
2888265;138.21073228950786;175.48885074661274;129.05368806156338;0.26626445744872096;0.19896036234682524
2888296;144.52873101834382;173.14810332777086;128.7277776156171;0.26799346022934967;0.20262511231697694
2888328;150.80297638893666;161.39551490752089;128.35096430369248;0.26804168725774319;0.24439825474405966
2888359;152.939732618932;170.18276046619894;129.50421747801363;0.26776768168379456;0.24332933157728748
2888390;155.60477542079536;171.70921831656639;129.7106492334176;0.26742143774319294;0.24104632569090162
2888421;164.16844817602672;149.34773062639712;129.76668077764077;0.26734520795933664;0.25313175562544715
2888453;166.61588692106258;145.26196821927792;129.7296537150786;0.26736253159569484;0.25631437206694818
2888500;167.53070351002046;146.24417624729051;129.71895645368224;0.26738242612546448;0.25666807915411682
2888531;168.16203869625846;145.10626436175127;129.51600210338737;0.26738637900060419;0.25730430873991272
2888562;169.96423779776643;138.94113636738868;129.33725300228559;0.26728032398281115;0.25673784141265227
2888593;169.80352464021567;139.00421977366324;129.1835237761853;0.26720989740623619;0.25669461387967085
2888625;169.5207047654215;142.88355608684626;129.10245276805912;0.26713196607499068;0.25675054613247211
2888656;169.22838669917755;142.4201548937659;128.99487350273577;0.26707691027909469;0.25654049918714467
2888687;168.92861362069482;139.66249482317176;128.89749695811446;0.26704495502352449;0.25664842749413047
2888734;168.58326905045513;137.69473346022355;128.82820952181274;0.26701121435113334;0.25668847059700534
2888765;168.21437550213102;139.97584898799525;128.81906653699389;0.26699918352539681;0.2564939977438957
2888796;168.0943357799645;137.46663089421722;128.79008655770042;0.26699362384798897;0.25650024533208793
2888828;167.93082266871033;131.71295925582635;128.73395627367253;0.26699162840880231;0.25606941147937973
2888859;167.7235612250376;134.16538493842856;128.73280016148638;0.26698609605380186;0.25620429217611951
2888890;167.46061883772197;133.03662807480092;128.67373203530303;0.266987392547892;0.25600393129176346
2888921;167.39569864426909;132.78629300751109;128.6372472878472;0.26699682440207639;0.2558726850877493
2888953;167.27057816573867;132.75089167784017;128.58258884901153;0.26700490962464912;0.25515979631105462
2889000;167.34756991024273;132.97499387218861;128.58077385970387;0.26701639796603055;0.25500265489420965
2889031;164.1063322316152;148.66822531030894;128.52765856958089;0.267042708012889;0.24745690654005018
2889062;163.81842413444866;151.76741484978075;128.50169996441673;0.26704860750405618;0.24593346983630396
2889093;163.72157821043356;153.57318461519898;128.45542282874055;0.26706275218740122;0.24536210314356038
2889125;163.66175012371724;155.50433229954751;128.3992000505086;0.26706666058865641;0.24490225190813536
2889156;163.6488004188453;157.03976771051114;128.36320456966161;0.26707449314663928;0.24436918649975004
2889187;163.50666533523696;156.87138584001283;128.26211988560081;0.26707159731527375;0.24392399808380164
2889218;163.4411481651851;158.0546477792592;128.25617531311349;0.26706950105343513;0.24324896292382361
2889265;163.40538045185974;158.62467699547088;128.19148806311034;0.26707102297255886;0.24273603772183708
2889296;166.12158170855639;147.71441056874275;128.14947431117787;0.26707235741630164;0.24533491888901643
2889328;165.38373198662188;151.33558109100429;128.03748969824241;0.26704497445888631;0.24428595386099675
2889359;165.00128061024287;151.82919669156956;127.97593402699961;0.26703047466591684;0.24362837421750638
2889390;166.85306277549225;143.29344701338195;127.92101038528867;0.2670319014382726;0.24826227327447187
2889421;165.46537841069909;148.95340021040207;127.91210109205535;0.26703709973911438;0.24517470242575054
2889453;165.0002848399071;151.72499020318509;127.90166635712679;0.26703243640639007;0.24400012821013425
2889500;164.69960024728337;152.36715161999246;127.84786101104909;0.26703228014184593;0.2434549616718204
2889531;164.49212429976041;153.19441105614007;127.83643607768855;0.26703040745540851;0.24290011331660247
2889562;166.47406078203326;145.6985046372651;127.75384993460308;0.2670313150762037;0.24751024345340572
2889593;165.71532789840057;148.71219957179997;127.73161243970282;0.26702521382675465;0.24542632418634477
