TimeStamp;AngleElbow;AngleWrist;AngleShoulder;LShoulderElbow;LElbowWrist
5897812;151.19607956099083;170.81468688875839;125.89250682588543;0.25331456499654809;0.244860702858028
5897812;151.46456227110684;165.92400324391377;121.78612505819724;0.25937146589455384;0.22743598979948551
5897828;151.32527061542149;167.23169436764948;122.44269861830041;0.25959040474018691;0.22838752909699461
5897859;151.18813240556617;167.88436520248123;122.74923906933431;0.25958776686921031;0.228176468886646
5897890;151.24725260250096;167.26388916260865;122.65569968345935;0.25984384983973646;0.22766301516466875
5897921;151.10391453423392;167.69158497986575;122.80378148031898;0.25967621531963847;0.22737909422592106
5897953;151.24201083790132;168.408710937532;122.64833352653325;0.25981290398219925;0.22774325873535231
5897984;151.11555051836444;168.72725281573017;122.7675740959009;0.25980283386796876;0.22733762576395228
5898015;151.3392247861762;168.17476120597789;122.74675141505291;0.25989724159316385;0.22797225471030633
5898046;151.28563221622065;168.01269193248817;122.58981011762739;0.25953216226161835;0.22869726897946602
5898093;151.19899235214379;167.87550746496396;122.63140298601591;0.25946778497950285;0.22957889268131262
5898125;151.08708156217179;167.87679530769259;122.86332033182335;0.25986551560137144;0.2295433193084743
5898156;151.00765742044948;167.67606884093377;122.92099219137329;0.25979954499309454;0.22954999206081028
5898187;151.04257976889278;167.48409055314127;122.85012362492627;0.25940321031490221;0.22954724755684575
5898218;151.02793895535959;166.57452905908261;122.83487599847808;0.2593518284673208;0.22978342708512364
5898250;151.07451770497434;167.17093027884502;122.82622194761414;0.25981443959419309;0.2294336583909154
5898281;151.19025705483347;166.73945402525092;122.8506661412619;0.25981917597654791;0.23000340333709016
5898328;151.37937945879011;167.14968814922588;122.97341327371311;0.26033345775452149;0.22964800223163334
5898359;151.45398903963789;167.69510102157884;122.98192613208231;0.26020639699085935;0.2290237445679062
5898390;151.39979894270778;168.72351299593771;122.99385785964094;0.2599988744804464;0.22906639730147776
5898421;151.47421070911511;169.05306609566893;123.10158753865396;0.25997977037872605;0.22937253629686849
5898453;151.40751540130026;169.75253237970586;123.1802707414931;0.25940916435788353;0.23109458975915473
5898484;151.49067966784591;170.03581142370729;123.23868446691;0.25900722516205288;0.23157558329314329
5898515;151.5372274251732;169.12081383239612;123.26326906103486;0.25888559643353709;0.23143171091389361
5898562;151.54782818875654;168.39463665443077;123.29547897635702;0.25873628199650639;0.23159570079785408
5898593;151.382640770048;167.51617176063078;123.29204869728092;0.25859767925844779;0.23301989795510264
5898625;151.38452583716352;167.06625151685356;123.2773151233737;0.258508672863237;0.23302808254101362
5898656;151.43904861900066;166.09698101886744;123.25139090600564;0.2584400512274258;0.23317375986525357
5898687;151.51583613031332;165.15149452191218;123.11131210124871;0.25831610916036307;0.23291607805090309
5898734;151.49574972416767;164.39340755192396;123.07056971074219;0.25810406250621071;0.23265734509252875
5898750;151.53936277219896;163.82271015538044;122.95760852094186;0.25799149520401482;0.23238899852079845
5898828;151.51493911407084;163.26584649269867;122.75556620099881;0.25790268447079218;0.23158015088232176
5898859;151.5533557206555;163.72074636318672;122.55042290191152;0.25776189300922508;0.23130398522246931
5898890;151.54487041636054;164.34260271232122;122.44659828907051;0.25720346182626436;0.2311896199852094
5898921;151.59399587553665;164.58043774449658;122.3010700910335;0.25694689082877703;0.23095402996938638
5898953;151.59824271642586;164.56765147082203;122.13550109674807;0.25694161750539868;0.23090553165975652
5898984;151.64779089811714;165.03501544314557;122.02293591708434;0.25690224187742561;0.23087654171686683
5899015;151.66614079001545;165.21772979081172;122.00137376142301;0.25702665933368235;0.23057421259761815
5899062;151.68674719107321;165.79305911324883;121.96898680307081;0.25707759845264938;0.2305268383961758
5899093;151.59143478082385;165.59105085238602;121.95039648780191;0.25713933627648045;0.23072594934709642
5899125;151.53816732836611;166.13941810557219;122.00157350368163;0.25731242277710231;0.23138012299479144
5899156;151.5070151770951;166.24983194919074;122.22232251618492;0.25717477047343928;0.23214609641578451
5899187;151.4818417173897;165.94579464927568;122.31970607542472;0.25698556464856859;0.23314592836583609
5899218;151.39931935026331;165.56171537093829;122.3322822972228;0.25689732847020358;0.23472060269076808
5899250;151.48571456992698;165.73905216907843;122.51540725357272;0.2568873093386948;0.23492474456848048
5899281;151.47053783213988;165.38615818986855;122.23489162988845;0.255775892139436;0.23683493111122
5899328;151.03359313162616;165.16143790862822;122.63455310759208;0.25564051419098394;0.23715167864841472
5899359;150.85366716444807;165.56002587210847;122.55921734423599;0.25371989447717636;0.2389848682661416
5899390;150.66030327350487;165.77784222075081;123.33573370462145;0.2519451851670208;0.2393174675695712
5899421;150.67171429010929;165.04543209080777;123.23209496151465;0.24990075219827573;0.23973934652293141
5899453;150.4293738653256;164.51792638781251;123.260598360624;0.24879288883611792;0.23873293784468211
5899484;150.89849394869609;163.79522005830523;123.38312960679201;0.24832621889920833;0.23695334709275803
5899515;151.07020308141267;164.45104979153865;123.75737894277184;0.24767047615436214;0.23550673258195837
5899562;151.34967927004763;165.47110132254369;123.64786027610991;0.24829226704351157;0.23587632428957295
5899593;151.47453937126903;166.30169020371807;124.45148474012223;0.2485403276401576;0.23447774674402505
5899625;151.39411336614151;166.43400412991741;124.85746332349167;0.2487194834092733;0.23291764247543437
5899656;151.51562975259211;168.72856110704592;126.04645795727691;0.24929384637555985;0.22997772401424119
5899687;151.78891519590354;170.67711115593249;127.0333833974414;0.24890856955400645;0.22954412581895209
5899718;151.76388997180189;172.87493806284184;126.89375055171402;0.24903605624588346;0.22920832819077033
5899750;151.13400056248977;169.82782525147897;127.70657304158833;0.24809987413335155;0.23027125971953358
5899781;145.11052122851996;176.87901977834972;127.78709829560125;0.24284140043341979;0.21511744688824885
5899828;136.83652104337389;170.00465612374754;128.8423362951105;0.24257024124717574;0.21541208852879329
5899859;118.70341149581765;167.86705152157555;126.9572775665427;0.23882181885494552;0.21576700749754332
5899890;97.050091270526309;168.27880497790434;125.65759617391824;0.23859581714621209;0.21558496063735005
5899921;94.872277365432268;164.42567648361691;136.64963125385532;0.21431801066977804;0.21501633493491226
5899953;80.199749678092061;170.59296057164127;140.01197519417249;0.21457292454046695;0.22942211295764292
5899984;76.518490729122547;162.21512839381992;143.04228731693215;0.22132841112135798;0.2123872813477844
5900015;68.30243055240787;164.27432465208037;146.98379561261805;0.21527634247469482;0.23631928593061138
5900062;67.468754228645068;151.55554756604298;146.744108032977;0.21556491400681338;0.23204697041406014
5900093;64.761234772324073;152.88287244481839;148.004270775787;0.21526489854872091;0.2290512928817996
5900125;63.959957379429689;158.61127758591414;146.92367576031239;0.2157358918661344;0.21732138227126588
5900156;63.986237928627666;159.10312265794536;147.6401215473656;0.2154107479410865;0.21898543336506166
5900187;64.462529532630114;162.02681920885959;148.05045274490246;0.21520712897314911;0.21262720599312895
5900218;64.684354350661465;162.56002728592929;148.19430451121593;0.2151240206723036;0.21117163530680774
5900250;65.168373253611009;162.0912536566531;148.4755096462647;0.21504153413393365;0.21137544745792589
5900281;65.04872610977084;164.17322508528409;148.81235583440403;0.21495858197053439;0.21631780106595816
5900328;65.278525920389527;165.54797058701695;148.79754508768875;0.21497603552526648;0.21950732686831689
5900359;65.3071778265181;167.54531299847398;148.26549820599121;0.21490365783158416;0.22405945371049735
5900390;66.400134423463371;167.09079367361113;148.20103464122084;0.21490082513854517;0.22606765093017489
5900421;66.326201922095123;159.62433364223881;144.92440287164681;0.2272591516023664;0.24053638566616536
5900453;76.868237564518665;163.66403111694902;144.52896465590268;0.23075802625862832;0.21291271442414084
5900484;85.824960133726734;167.16605741377558;143.43041694620561;0.21787909182496079;0.2140153446933909
5900515;97.518923813501459;159.53524661482209;142.57768432979739;0.21747383414043528;0.21498283695067744
5900562;107.68545279635698;161.5562201153015;141.27538868205556;0.21992433806148798;0.21551124675841291
5900593;103.33989707422016;174.37357464761345;134.20369887904715;0.24219248765803253;0.24429585592443623
5900625;115.68489690416924;172.34164224057417;133.86329866559316;0.24269099677306549;0.21555848244324091
5900656;121.70953858879814;174.12093988614649;133.64782050575275;0.24266889477799453;0.21857833798867776
5900687;130.25564544841558;175.25989060912096;132.8623955127874;0.24216453061830753;0.22812979333120509
5900718;138.71491876258196;174.97533916818284;133.47557484036057;0.24318816687294598;0.21500553104783807
5900750;142.31126349144168;172.83975047966234;132.6811735741766;0.24294277699261827;0.21473650373286224
5900781;148.86085087453387;176.6295835124395;131.91275628012338;0.2447299374808152;0.21991388599919659
5900828;151.38772296921761;174.00708987164873;131.40617249334116;0.24531710260572839;0.21988656706394708
5900859;157.899026631887;173.94376912649071;131.40799613539491;0.24627330811803364;0.26226443366538865
5900890;157.82655200778652;171.93297753337237;131.17054150781468;0.24897855431442173;0.25953144378212728
5900921;158.76603149516961;167.29506630939454;130.70356076328284;0.25313451980222468;0.25606428752016053
5900953;159.72222723825684;165.9111084187544;130.4732823120049;0.25572257676996429;0.25299499761058131
5900984;159.92299711033655;164.847629539267;130.34498740014172;0.25692695461160686;0.24934578282912712
5901015;160.22500018845517;167.765245324039;129.99810583227861;0.25854480518827683;0.24341785262364873
5901046;159.8176846222953;168.86153934250893;129.5214465571058;0.25952460723855636;0.240640079917243
5901093;159.39813316539807;169.67456802633078;129.10811964864979;0.26023759911067057;0.23908986964589699
5901125;158.95600286678095;169.84770805819676;128.67316004299147;0.26100118544858841;0.23740483775547594
5901156;158.721417651833;170.96759294406448;128.12292253641667;0.26157419687477673;0.23603629956257327
5901187;158.11730146790495;170.71872895402203;127.7265997958982;0.26206326529426605;0.23509905090205857
5901218;157.77672980115256;170.50853944128588;127.37189133719917;0.26288971415526835;0.23427474722587371
5901250;157.48159954553455;171.39580242406115;127.09989631689226;0.26327468870723209;0.23353111736202795
5901281;157.31610032988507;170.81785911736137;126.79603414597089;0.26351012028177495;0.2332745614118904
5901328;157.03982162191034;170.37104614573562;126.80986440349925;0.263554123663027;0.23285134041620884
5901359;156.94406598981945;171.97308069773109;126.88891109370941;0.26319246870625457;0.23283040374509473
5901390;156.815190780559;171.725565867893;126.83513908445904;0.26272173597312165;0.23275897835571086
5901421;156.74284546624227;172.8105817623659;126.75824662366183;0.26251332109757042;0.23270310987356443
5901453;156.64059686592304;172.07145422551881;126.79621006487096;0.26219687371667116;0.23280536845123667
5901484;156.6013382096892;173.31313212489548;126.81537320922058;0.26198311883979558;0.23297329128114838
5901515;156.5519996923457;173.61570361411125;126.97716508832124;0.26211350772236253;0.23254976770413391
5901562;156.55819103800752;173.29719844707626;126.9837709636147;0.26176846306335783;0.23291293358037371
5901593;156.51871202559525;173.68484023871346;127.03381140079814;0.2615120539152897;0.23317847793342914
5901625;156.51449445127304;174.63940647122206;126.92617600733006;0.2612263901154076;0.23339648666539853
5901656;156.48731988420792;173.15948676395183;126.969662172927;0.26101958168228312;0.2333719463294279
5901687;156.47588895633535;174.0228582871174;126.98930750844693;0.26085697320200435;0.233629435450406
5901718;156.46880061995287;174.15851506390388;127.02253829379768;0.26069291608276457;0.23381914997084313
5901750;156.39226931051502;173.41642036366429;126.99434889771214;0.26065881412521946;0.23378838101929053
5901781;156.4103210952421;173.35908730539288;126.99088694228598;0.26055437525509906;0.23380950646692036
5901828;156.39247206158294;174.003314203322;127.02749909167022;0.26054427918623257;0.2339028762828092
5901859;156.29552529682414;174.30218456368107;127.0400412666863;0.26037528251554737;0.23424363332819034
5901890;156.29636562812254;175.60799438585798;127.06473174530233;0.2602741530545164;0.23427537069981366
5901921;156.2986477066552;175.57231059409239;127.0576783735157;0.26021531695993744;0.23437573557874813
5901953;156.33792994852087;176.689019761047;127.08095912760541;0.2602316623785802;0.23416967073045109
5901984;156.35499635363109;177.20843011232103;127.044209874168;0.260217553264333;0.23416596887281585
5902015;156.36396514079536;177.14968339177224;127.07619071289268;0.26002269989432292;0.23424214101749014
5902046;156.35155679050166;177.58681719826313;127.10575400376433;0.26006451848518136;0.234165827078552
5902093;156.33522173920755;177.71378373591034;127.20954023462404;0.25976612740939659;0.23413315429719117
5902125;156.35543540408921;178.234660376823;127.21406887393997;0.2596655517672995;0.23422137521154324
5902156;156.37988768270355;178.16745280763706;127.21179297456126;0.25960918215261591;0.2343749315309927
5902187;156.24292590358107;177.66576308762538;127.16918650873605;0.26053372478729997;0.233442637692886
5902218;156.23479181796631;177.91699045957196;127.196013858999;0.26044849588128088;0.23341655831715846
5902250;156.29316650470307;177.82844245435771;127.21073571282477;0.2603515362673654;0.23386027372040261
5902281;156.30429099865961;174.22060229453709;127.34151907546115;0.26051584144556639;0.23403966334634993
5902328;155.19821888986513;171.39461021976734;127.69459562270193;0.26126693650357941;0.2389297196541269
5902359;154.45043704386129;166.56523977750695;128.74931317809038;0.2602159014243009;0.24354175383003737
5902390;151.52491721040957;167.69738534604659;130.58575912186535;0.24905462147677143;0.25215937566662688
5902421;143.178176703143;176.83734963528866;132.44182856122117;0.2443495530795417;0.27066644556632441
5902453;131.04096396860368;179.03048916778968;132.63103008502415;0.24217539260962406;0.24581419636505961
5902484;123.74180337024126;167.70610740358532;137.74680592785776;0.22216124728069062;0.21468215895048334
5902515;104.18275248005635;167.06882640588742;140.60672878944777;0.21847700481385773;0.21457082305323985
5902546;87.330617480289376;169.20881978362641;145.27015639431033;0.21409668227828413;0.21629226556470427
5902625;72.0692709197306;170.14658515625357;155.13535187986386;0.21509492274233275;0.22383551041638511
5902656;70.523826889564873;158.91292242704256;155.07496535958234;0.21510204159262519;0.22500449764533131
5902687;68.288896456817568;158.43971802925242;154.99779651198324;0.21507111726008249;0.22589975511381713
5902718;66.7881306670046;163.4432122494006;154.5253040154152;0.21514698191013923;0.21741357688571214
5902750;66.29016113960725;165.436094555259;154.20391370152044;0.21524587926417907;0.2145552786345642
5902781;65.716063771764325;165.75293225789747;154.3562972889045;0.21525749013811632;0.21195401003987746
5902828;64.9147838981608;166.85870331841886;154.5428923395578;0.21527469065652619;0.2173277164843189
5902859;64.9745223324726;168.69395567613321;154.66937533569319;0.21532455511548262;0.21547196981168498
5902890;65.027840529438379;168.11091081630067;155.2325293469932;0.2153194069691389;0.2137432976700884
5902921;64.561196005154372;167.95927476991773;155.26412012443922;0.2153449501951954;0.21755943736636327
5902953;64.5324681819835;169.15500166564524;155.51512132469748;0.21532937301684604;0.2145890428631444
5902984;64.294200194636545;170.123387993504;155.44443478712373;0.21537391991619914;0.21789328351028828
5903015;64.314189598374739;171.5186998418483;155.54378169399871;0.21538863521196125;0.21909740682409262
5903062;64.763112743204829;173.26068958033963;155.55749051223052;0.21540021090931713;0.21481319836101587
5903093;65.528144426816866;174.48505926845988;155.56409637689242;0.21541136994121587;0.21165983241587844
5903125;67.0705448452448;177.59270134458228;155.24902322298073;0.21545543238882312;0.21839158522362268
5903156;67.307082515215143;165.22488681818504;149.45682558083297;0.22617854921295724;0.23115348773715289
5903187;77.990616126603626;169.28960731652964;150.13488045279397;0.21605630858266339;0.23161722038382526
5903218;88.863225282864519;161.94150219327841;148.46839026574205;0.21573906017219474;0.21432036534266416
5903250;95.711495611744226;167.42253632794404;145.21412716510196;0.21523446463908208;0.21538488603532296
5903281;101.09420708394011;169.21090874693326;139.75078241877944;0.2397159557139357;0.21537100454871383
5903328;108.43269815133046;173.26648035323782;136.08711525146526;0.23715520443801097;0.23601418224656376
5903359;123.19849148415042;175.13072763566026;135.7318116051799;0.23709157961480992;0.2157141576189206
5903390;135.65666209842919;175.90960192724177;135.58579455310093;0.23379254492162152;0.21516619283530891
5903421;145.13400448759484;168.79397010456478;136.56415905625678;0.23540638920450496;0.21494822875756947
5903453;158.03920566257423;175.54307349534514;136.89604084693553;0.23887663299803169;0.21472440404082149
5903484;165.90233703576976;169.95220283539933;136.67362701983578;0.24151858135430118;0.26586430984870313
5903515;168.31451118091044;163.86109180098035;135.19586535806928;0.2578604574567121;0.24917125994013797
5903562;171.3554349344586;163.76433795342021;134.14211454159241;0.26209716809972416;0.24605935011610144
5903593;171.38115523644493;159.77800357831893;132.68819539394727;0.26568140182278582;0.24136638845903868
5903625;170.74259419404959;162.24406080368826;131.29279289372087;0.26647010935663606;0.23787891701527167
5903656;169.61608350819645;161.6644453503155;130.45138499737155;0.26528990518598555;0.23725996953481193
5903687;168.81945960288908;163.1514736075429;129.9921607368139;0.26540908945104841;0.23617631761895669
5903718;167.53718747246853;163.94450293646034;129.51812433348087;0.26484456313833132;0.23604556914714775
5903750;166.54353366187652;167.44546826401603;129.41163033044725;0.26468670543247041;0.23495285006706518
5903781;165.90016076680684;168.23850717602483;129.25901178417135;0.264515993596351;0.23417460801482984
5903828;164.48336471086111;170.88181709027111;129.22818874218717;0.264051351726731;0.23321077138651636
5903859;163.10074990558371;169.31361118570788;129.28158062436674;0.26355262039062793;0.233184660304192
5903890;161.68595858541576;168.00150670189308;129.13909785752392;0.26258778054440546;0.235788199463417
5903921;159.96488053464171;168.997034078635;129.02209666807164;0.26248458578938327;0.2378172660078359
5903953;158.80527486554556;169.48887765245817;128.9453689464693;0.26155448026961481;0.23916500740709099
5903984;158.05531349087235;169.16926760951475;128.84959796832737;0.26104506142491379;0.24098002254994264
5904015;157.62280921267373;171.00412218759291;129.15422304403771;0.26012275051238842;0.24184129131391513
5904062;157.63534771803936;173.51050842816093;129.36994309306908;0.25936880200774076;0.24223987019601115
5904093;157.61599132319176;175.03986687555707;129.23233107082336;0.25951758850747259;0.2423837378136384
5904125;157.6190713944352;175.23495660718561;129.23350254806948;0.25951535825919675;0.2423864081865002
5904156;157.75699577352279;172.78155032773026;129.27124150456493;0.25953764241038674;0.24223284622745536
5904187;158.3466719685469;170.99116679366648;129.2695449927804;0.25960051677815033;0.24276600981930496
5904218;158.48288117482522;168.81973442872973;129.23973577277661;0.25988550746629624;0.24233457878091355
5904250;159.09364633461078;168.59603725582042;129.21411968286296;0.26015547970676911;0.24170467500395365
5904281;159.57949368594504;168.57924636881324;129.20157843598713;0.260566526845866;0.24076672947229028
5904328;159.87927956959575;168.63493106976583;129.22002640668043;0.26071399553293617;0.240099216053813
5904359;159.96972328334763;168.88403405385665;129.33948084317123;0.26118253373844963;0.23907895525844594
5904390;160.03193603345653;169.47648609066735;129.35523439064579;0.26146106765533605;0.23851118668630189
5904421;160.05637977495329;170.53337722190793;129.40340316305509;0.26126488612014531;0.23871675306545903
5904453;160.07968437530414;171.30252391851886;129.43449602152197;0.26142685583636177;0.2385740235367898
5904484;160.07548088475019;171.1959969524244;129.43432050643898;0.26141968212947181;0.23813949989941011
5904515;160.05144590251612;172.09721648042913;129.41522252561057;0.26148664922749021;0.23800301339413443
5904562;160.02655253459002;171.70830857823259;129.4114879623281;0.26147797419031227;0.23796084035064627
5904593;159.93902914513103;172.31662001118923;129.41331979288768;0.2615258165764619;0.23797100367196852
5904625;159.86220038001474;171.610144296296;129.3306153216798;0.26154943123030339;0.23803918571515734
5904656;159.86621967922076;171.25299084807534;129.33821562750558;0.26147496939051157;0.23808975495782542
5904687;159.88006172219687;171.44283987805602;129.34381923557115;0.26146229864325471;0.23804003377878885
5904718;159.86268836346503;172.6529210133603;129.29238704109361;0.26138336272839557;0.23816821714083059
5904750;159.89190169507825;174.83779518571711;129.36850013912482;0.2614068100208683;0.23798747863435918
5904781;159.64916180546416;174.02304628818024;129.36863037437678;0.26103258304815385;0.23961465320168421
5904828;157.53845975653854;167.45137139667585;130.05856772470602;0.26088261651796657;0.24082452723903777
5904859;147.45379434430848;172.42292317437546;131.15886368589619;0.24905794655695349;0.21389624398881141
5904890;134.31932212371177;167.94876862973069;132.25564897187368;0.23487594259180938;0.23588006880875842
5904921;118.82468177962187;166.67658724962362;134.91994485214133;0.21848817577235777;0.21514299921918367
5904953;95.967121938406748;172.2018836423679;139.63205840394832;0.21355342454862442;0.21467943446995935
5904984;78.0519748419553;171.96840520646555;147.83189454292921;0.21469667539820289;0.24100703025533921
5905015;64.6388862737592;175.16094324385045;151.48442580621313;0.21518336197334653;0.21566692212274916
5905062;58.255949587268319;170.72938009528161;153.01139891447625;0.21531926767870646;0.22746865104753142
5905093;57.803531781442075;163.01159279543003;153.79709951591886;0.21533354921249545;0.2247631530610103
5905125;56.4324271048863;166.426165222752;154.10052103015644;0.2152758089649634;0.22890345515905464
5905156;56.140092277130677;167.20321499829527;153.7090128116387;0.21534558270110307;0.22822548552973723
5905187;53.424576376297004;78.491705963405863;153.48358548979962;0.21542555055854196;0.28377091534371374
5905218;54.945778619307;175.67454399373489;153.6064401662816;0.21541529240039362;0.23469835078996376
5905250;55.062431697519408;174.80480922743422;153.63597416766737;0.21543294847040373;0.23454689231753709
5905281;55.588772930931107;176.84398888219593;153.79742995019711;0.21541989219153349;0.23146151528767181
5905328;55.72029576559752;176.04014869613351;153.83369995216705;0.21542180028867802;0.23152463288867864
5905359;56.090291756973187;179.26085639629403;153.81587633662846;0.21543104241685976;0.22944131317857133
5905390;56.30168961144517;178.00513613794269;153.80921606183955;0.21541397209394333;0.23091903278076834
5905421;56.579446900842051;175.86266975483505;153.93958847230519;0.215420830072622;0.23192744856426983
5905453;56.800020832403142;175.5698327466333;153.94539374441561;0.21539995265482087;0.23286752905174352
5905484;57.246505212591764;169.55343400503244;153.8547367226054;0.21539485522068735;0.23398659878549777
5905515;63.204910293571395;173.78854134572441;153.64731065660442;0.21536965484275558;0.21101325674547594
5905562;66.917273863934625;175.9605767593207;153.13198023323059;0.21534935816382156;0.218002001985604
5905593;80.529009082368347;151.40057520395044;152.57681915100372;0.21521692023840558;0.21260326813312494
5905625;84.185045173505145;166.40184643009695;148.5333500646135;0.21490002368808794;0.2138363436731778
5905656;96.225918169278714;161.90578593336775;146.13541807940339;0.21445354767267891;0.21510524035591241
5905687;101.38542597657373;162.23569026175144;139.61593439896805;0.24198536352712544;0.21484358187224018
5905718;112.89759391819331;170.52183352030707;136.91415785711135;0.23759217081889728;0.2153907139599541
5905750;125.63981519921438;179.51788538439607;136.86574973752238;0.23564674960710455;0.21529403112071832
5905781;138.91944943573128;176.3785498774582;136.35538141423291;0.23433785383885225;0.21499645582123081
5905828;148.69000656703295;171.86133400360521;136.92511366145331;0.23495484903355457;0.21461987382237072
5905859;160.60418025464225;177.30168997211757;136.07602574834041;0.23882604713411662;0.21742289638456797
5905890;168.05184693213053;175.74116999779;135.02747424323852;0.241482469294442;0.27195804151505026
5905921;169.30179829817141;163.86877563427112;134.31841112588657;0.24447295002619013;0.26965694484052832
5905953;167.66044858511773;164.95925532608234;133.45126290659377;0.25449138165034035;0.26171476495481727
5905984;166.17569553891752;162.08325356049559;132.78028886624125;0.25682145736833972;0.25834777050386865
5906015;165.22892507635712;163.16002451862195;132.15485092899459;0.25881296900252387;0.25671402632003232
5906046;164.12806484363216;166.03668025515853;131.65941206008623;0.26003101025888586;0.25506993410674234
5906093;163.4614117470818;169.58271025449662;131.72172785613154;0.25929431220896626;0.25405954405298875
5906125;162.64513699179315;174.07919681403712;131.67253505810908;0.258134434171649;0.252654958176516
5906156;162.28702037118214;173.78768693301873;131.70506971541713;0.25761461681517928;0.2526117299955537
5906187;161.67926859015455;172.13781429686674;131.65758488886922;0.25676705935586452;0.25261360847175129
5906218;160.95145349437934;172.13535823909743;131.65187068346739;0.25619457887463903;0.2530574049256174
5906250;160.35246120363266;170.4499363953513;131.57315968065316;0.25525994215572906;0.25359244249991492
5906281;159.67382339414172;172.46539838701892;131.56098857869998;0.2546909167954573;0.25213923104130914
5906328;159.12322325746965;175.10623800913749;131.50116211908306;0.25405902401318659;0.25293938368020463
5906359;158.8374739584001;177.31039792436457;131.51293914420577;0.25379116543835623;0.25320972849920648
5906390;158.60918532991863;178.75893061997692;131.50080475400895;0.25356551693947643;0.25329861084097255
5906421;158.50494498570706;176.17382674747267;131.50024911840669;0.25338462681724333;0.25340959613319253
5906453;158.5262145641675;174.59916251734484;131.45184653916181;0.25342162005334584;0.25313107391621675
5906484;158.54388970045181;170.60893273004365;131.41211883567141;0.2540618874046518;0.2526822235940171
5906515;158.74237923530225;170.31356009192223;131.37758226708922;0.25408919660097851;0.25225574964111841
5906562;159.09531243244388;170.36670448128416;131.32032887673688;0.25411255297871582;0.25091888518648109
5906593;159.35455329878747;171.15639676283624;131.28674336107153;0.25446439086326861;0.250369175702335
5906625;159.45653330859577;170.85436671372349;131.21502604961208;0.25524417256809306;0.24952475144034553
5906656;159.44260338493533;171.90329959286999;131.00216551533129;0.25589330547320588;0.24916966241836661
5906687;159.49885178919553;171.83233818837451;131.03209950866071;0.25584973352665535;0.2486070185189381
5906718;159.31300793743532;172.80145880153742;130.99660533946712;0.25584878357354884;0.24858477250774719
5906750;159.02248926914848;172.08379332536288;130.9939073482949;0.25615463885128043;0.24856260083452766
5906781;159.05398935500733;173.46590950156215;130.66559532540413;0.25676259433185622;0.24828553890908281
5906828;158.87026503596084;173.455408498576;130.69352424692275;0.25725535808394678;0.24784547270054702
5906859;158.76448655876422;173.56146085751104;130.75418977165745;0.25735585552012008;0.24750601065200273
5906890;158.57650824857561;174.10930932614858;130.84211245164232;0.25783817427374572;0.24698629596311084
5906921;158.58321981176692;173.40005332339086;130.8668254216563;0.25774841219274214;0.24702462366201949
5906953;158.4517861339809;172.92267587279946;130.86645259654335;0.25812696468877122;0.2466906367243511
5906984;158.4227202177926;172.49862601636116;130.72599774902716;0.2582202689974662;0.24689600787360311
5907015;158.57486410276874;171.30697905744361;130.53538059861126;0.25850470686896093;0.2468788809665543
5907046;158.58953728444109;170.5173496488286;130.38770524220936;0.25835119474790946;0.24714643438561434
5907093;158.71731791018263;169.75710596817768;130.23797492581502;0.25866988505413235;0.24653684527243641
5907125;158.96531496535661;170.33543950950684;130.06649682019284;0.25875313948341566;0.24554046560154083
5907156;158.93388119019295;168.47506037928451;129.85608733406508;0.25874870280722778;0.24536081971333476
5907187;159.052209752353;167.98315634681097;129.75113831525243;0.25862824644203586;0.24374508487184243
5907218;158.81755426646589;168.45521441033259;129.59496623942141;0.25862891263586812;0.23798062562084274
5907250;158.28848905308448;166.93997091747164;129.27454473226649;0.25705343638720296;0.23473115995578092
5907281;157.64254620301378;166.22060683232778;129.04890245424139;0.25652652374683782;0.23003557559282328
5907328;156.6980911276581;164.63184466414057;128.52311621866676;0.25497284337310472;0.22926877174409333
5907359;156.01105209813792;162.61367676210304;127.86941041907352;0.25372173683117644;0.22783688326107651
5907390;154.69744313959944;161.93966390682627;127.13492330125474;0.25227973940740323;0.22880691165436562
5907421;153.89721222083543;159.18033496323264;126.69174790725053;0.25161760422868523;0.22760303795665585
5907453;153.39830097766748;159.84582489646587;126.23308178269255;0.25063995430536279;0.22622431699511864
5907484;152.85127484485841;159.08149670197028;125.63044256813754;0.25120656514180795;0.22536593225687029
5907515;152.53829514286872;158.82057414080362;124.76122137657441;0.24867923651603086;0.22785435715089994
5907562;152.42102906051125;157.86374472030244;124.20867307619163;0.24839490942777728;0.22687559581462263
5907593;152.13457613647265;157.82287128730766;124.10866398097572;0.24866222220727546;0.22801292045373239
5907625;151.64122828434586;158.55792952374048;123.96382612435922;0.24828060766005339;0.22998369361733737
5907656;151.32517810091994;158.80490481894586;122.93423428421637;0.2478648609683442;0.23058616632174162
5907687;151.04728365167395;159.85265550096571;122.90130314010435;0.24820594964679821;0.230189718585759
5907718;151.17776189321566;159.75245466037526;122.81981419956829;0.24846621806697586;0.22933934335300282
5907750;151.02603145490619;161.08047650242023;122.91442078874366;0.24935739858784503;0.22830988215615916
5907796;150.88751194181978;161.30991545113412;122.81658868452048;0.24936397784188596;0.22796685909925071
5907812;150.46568607478608;161.34943885463011;122.72978705186908;0.24988887254425132;0.22740060314442981
5907859;149.98638564704382;161.69372947893822;122.63964997163828;0.25032627928371337;0.22667423489513411
5907890;150.14979855942008;162.89942132295511;121.99292466440848;0.25130454538614289;0.22550841622431581
5907921;149.59195215754519;164.32851321998845;121.74155288506506;0.25181376654280946;0.22564811264551632
5907953;149.67658128844056;165.77442046241185;121.19931953535541;0.25200960191743987;0.22414521590075778
5907984;150.33779436537523;168.32728583412705;120.88033184576322;0.25270409780128855;0.2226919551607649
5908015;150.73815629847564;167.33570113152788;120.56035099764796;0.25318709919090121;0.22574847745279286
5908046;151.68696299360298;168.96864541049794;121.07196174413674;0.25256874239962523;0.22528866786345769
5908093;152.36173380248934;169.03688668361085;121.616818084803;0.25305799198894874;0.2258105163376673
5908125;154.366485392247;167.80864935559328;121.82515494187753;0.25275030412161925;0.22683594115358488
5908156;153.95820341078408;166.98020985914232;122.76091103601205;0.25088797334779372;0.2302398998098876
5908187;154.3094893648769;166.19108656105038;122.89022057768305;0.2488918437009969;0.23504120814412358
5908218;154.32002993998785;165.87600715537795;123.35110949835979;0.2525266781992464;0.23167647663479726
5908250;153.21577083566851;164.50387065486257;123.58352690621844;0.24959130046926659;0.23516496365384929
5908281;152.70729358485639;164.17479849334234;123.9683208833688;0.24820578114563352;0.23491245564362806
5908328;150.67796129528605;163.80721911032336;124.42594984172023;0.24784241734515367;0.23581634109463648
5908359;150.90059794128555;166.0901492864397;124.55503011882365;0.24732075166828776;0.2189682317049311
5908390;149.46458794794503;164.05989537198929;124.66893118575034;0.24591157891475671;0.22708118105026132
5908421;148.74860076969912;162.88624317827046;125.28539437444644;0.2463366029567611;0.22973615843513504
5908453;148.13895857234434;161.332468549256;125.77699995917254;0.24571640448225218;0.23143565107041295
5908484;148.05214029521918;160.89235230035396;126.16233046950227;0.2450468221114302;0.22571658931158714
5908515;147.82262663266147;162.06761319265712;126.28080399388581;0.2447955594717445;0.22303886367153775
5908562;146.92907115046918;162.79729628258065;126.4327813636238;0.24367805260051714;0.22621552177093887
5908593;146.97823093842487;163.33442205068067;126.71181069964169;0.24386221123631527;0.2269283752942606
5908625;147.1768765854203;163.24869532376326;126.72291222019018;0.24330173557975005;0.22703254718382929
5908656;147.58086877664141;164.4763988648011;126.67876072622957;0.24347225285940352;0.22934023391530498
5908687;148.33787579998682;165.66517315726892;126.70501543697479;0.24388646491452548;0.22893431446998536
5908718;148.76929368058038;164.90590515641912;126.68676562589118;0.24377072138188752;0.229176579093325
5908750;149.68192203830216;163.85724940161131;126.59078494967685;0.24370826305542506;0.23212949708189393
5908781;150.33043983805422;163.5562093935277;126.51024347164564;0.2442662150803192;0.22747396066464873
5908828;151.39250653705744;162.71797510925566;126.45975815047866;0.24479806349646202;0.23080082347449829
5908859;152.18856780571846;162.34911232773581;126.32653789194012;0.24561209140935322;0.23206013872878359
5908890;153.14462248654448;162.29342720250904;126.20861373583117;0.24645980238363319;0.23337744306172617
5908921;153.50745735746045;162.86772060894322;126.16083941924734;0.24689018765689344;0.23441143744943394
5908953;153.76704610467331;163.23215649286763;126.10017814223494;0.2473010809107031;0.23488701173029675
5908984;153.89433121954215;163.48187775843391;126.00218286611545;0.247820121646904;0.23504600692442643
5909015;153.90794086293758;163.64901792363051;125.90198718878864;0.24794490356358725;0.23510131332997253
5909062;153.95518032643162;164.49782198977587;125.93717611637423;0.24775820782579661;0.23509950904712232
5909093;154.03793570349387;164.03524154452043;125.94259186976902;0.24755739450159536;0.23512339077230382
5909125;154.00512172180856;163.40778888622447;125.8949833371536;0.24754616413330458;0.23502351688211157
5909156;154.03795651470375;163.21679095153547;125.87422293181676;0.24717867539405819;0.23512932527640726
5909187;153.97178527619633;161.78703873690995;125.86113912687804;0.24701799380509118;0.23538333617288829
5909218;153.73205559553819;160.8248521987926;125.83484256735149;0.24692172469692983;0.23554994005709951
5909250;153.62545414655659;160.76846453150927;125.90051655229708;0.2467774306990709;0.23570170240402263
5909281;153.31122127426292;160.10672948866917;125.94071327154371;0.24681433082848708;0.23531150285048991
5909328;152.94990792965922;159.87133739150107;125.9712854221727;0.24674707499593879;0.23517571198169224
5909359;152.8762342224766;159.51823336734481;126.02903012111975;0.24660552750191925;0.23519583626642499
5909390;152.8943041805326;158.42332604847192;126.06604468737261;0.24652361884492752;0.23477179503016579
5909421;152.698858114552;159.49119522827775;126.10450929184232;0.24644146929832805;0.23486360440732737
5909453;152.54187289424729;159.02171263167097;126.14005586482315;0.24621920412812651;0.23487956705152949
5909484;152.4148679754019;159.81833971049912;126.24955025015018;0.2465054384910827;0.23470891946016045
5909515;152.36061446464478;160.1026750423278;126.21249805504033;0.24619982509722632;0.2350448944130856
5909687;0;0;0;0;0
