TimeStamp;AngleElbow;AngleWrist;AngleShoulder;LShoulderElbow;LElbowWrist
295667718;130.6360545;89.7533048;119.5396899;0.276685388;0.229827465
295667718;132.9014064;171.5538664;120.5865519;0.20471177;0.252379089
295667734;132.1340549;171.6065027;120.9724155;0.2074343;0.252155834
295667796;131.6454555;171.604664;121.6108291;0.206904081;0.251929179
295667812;131.5012161;172.0881476;121.9013088;0.206622008;0.251711874
295667843;131.4627981;171.9412239;122.2882746;0.205242062;0.251713222
295667875;131.3739231;171.8262148;122.6388601;0.204104419;0.251715332
295667906;131.550477;172.11263;123.1945948;0.201822615;0.25169588
295667937;131.4372091;167.7129133;123.3514803;0.201282239;0.251734908
295667984;132.1634053;166.4035154;123.2418853;0.203187053;0.251742095
295668015;132.3767723;166.7160461;124.1010509;0.199168885;0.251720583
295668046;132.4584928;167.5310357;124.1786213;0.199885992;0.251714773
295668078;132.3048247;167.6811739;123.6471431;0.199557585;0.251716078
295668109;132.9961938;167.4946984;121.9970284;0.20604242;0.251719476
295668140;132.9714945;168.4818265;121.8856696;0.207644567;0.25171987
295668171;133.025989;167.8816971;121.3464334;0.208049481;0.251718224
295668203;133.2056613;167.7845541;120.6194663;0.208700961;0.251717794
295668234;133.9181607;167.2108539;119.8566957;0.211662824;0.251714171
295668281;140.9654985;160.0333205;119.5606838;0.211367027;0.200630523
295668312;138.6926801;160.9991045;119.002572;0.214722224;0.250985684
295668359;141.462443;158.9699697;118.3282995;0.217338499;0.207999507
295668375;141.351186;158.7353962;118.1718331;0.217649905;0.207863918
295668421;140.5469269;150.5211536;118.0207506;0.218245511;0.244182453
295668437;139.48496;152.4010388;119.0459475;0.210440514;0.250140035
295668468;139.72569;157.0084886;119.2642717;0.208551664;0.228086223
295668515;139.1840207;153.1420164;119.1790366;0.207831406;0.249652743
295668546;140.3802172;157.3861461;119.1288218;0.207359737;0.219230744
295668578;138.1780233;153.2459532;119.0775906;0.206194732;0.249277484
295668609;137.8657817;155.7949693;119.1620181;0.206635481;0.249074166
295668640;137.7716024;157.0971177;119.0985145;0.206566573;0.248869036
295668687;137.6888372;156.5524259;119.0671995;0.206588426;0.248677226
295668703;138.0111633;155.549036;118.8986031;0.207843352;0.24847857
295668750;140.726535;157.8255758;118.7971904;0.208546107;0.208787477
295668781;137.427942;162.4808857;118.6739367;0.20912209;0.248191879
295668812;140.185422;154.1358954;118.7422794;0.207966254;0.208059309
295668843;140.3780737;154.4117269;118.5855866;0.208304834;0.20412389
295668875;140.3907988;154.4365464;118.4648819;0.208769118;0.202171091
295668921;140.3471941;154.3915418;118.5302541;0.207799652;0.20199065
295668937;140.348497;154.8756207;118.5091572;0.207313673;0.201817233
295668984;140.2827748;154.8965562;118.4418343;0.207355677;0.200676579
295669015;140.0669079;155.1596164;118.6105727;0.206469637;0.200776246
295669046;139.9737112;154.2028418;118.5721623;0.207379659;0.199659378
295669078;140.0307787;154.3467773;118.4933764;0.207743135;0.198897912
295669109;139.9987519;154.137657;118.3902031;0.208163899;0.200529952
295669156;139.98973;154.0411893;118.3425176;0.208604166;0.200058855
295669171;140.089778;154.0799624;118.3064855;0.208979529;0.198681969
295669218;140.173827;155.4321151;118.2585263;0.209244956;0.197618425
295669250;140.2580881;155.3776319;118.188708;0.209357361;0.19685131
295669281;140.3679842;155.5360472;118.1248225;0.209732195;0.195573532
295669312;140.2953787;155.5939099;118.0693022;0.210306954;0.194395214
295669359;140.3039767;155.3858145;118.0529758;0.210390936;0.194150012
295669375;140.2465361;155.4313996;118.064572;0.210495309;0.194115845
295669421;140.1869901;155.498725;118.1209977;0.210666674;0.193975133
295669437;140.1405929;155.4043251;118.0621912;0.211277328;0.193375662
295669484;140.2241081;155.4764184;117.9677161;0.211512365;0.193475229
295669500;140.2464546;155.6366343;117.9606974;0.211582724;0.193164807
295669546;140.2821483;155.4341179;117.9722459;0.211579223;0.192882048
295669578;140.1335427;156.502742;118.0405486;0.211552552;0.191726597
295669609;140.182932;154.0209817;117.9750697;0.212104252;0.191112909
295669640;140.1710822;154.0035649;117.9101344;0.212420304;0.190816109
295669687;140.2495475;154.8675621;117.8553463;0.212395274;0.190672008
295669703;140.2423165;155.0502772;117.9973075;0.212362658;0.191090541
295669750;140.1844826;155.221266;118.061738;0.211746252;0.192013224
295669781;140.2187651;153.8575608;118.0506922;0.211677055;0.192105366
295669812;140.2213027;155.1128778;118.0427192;0.211702169;0.192109949
295669843;140.0739556;154.5382755;118.0317043;0.211968619;0.19543532
295669875;136.5181703;167.6653718;117.944147;0.212386223;0.24562411
295669906;133.7279733;175.8207968;117.8828342;0.212513877;0.245744979
295669953;136.1424443;166.467273;117.9487672;0.212190269;0.245580306
295669968;136.2681168;165.5691739;117.9569756;0.211957692;0.245542316
295670015;139.5632747;153.559222;117.9653727;0.212170277;0.207061531
295670046;139.6848105;152.8596902;118.1731399;0.210089004;0.209133473
295670078;136.8922938;162.2645858;117.9537222;0.21127084;0.245414916
295670109;136.9101008;162.5780803;117.8996273;0.211627669;0.245381401
295670156;136.8955165;162.6266984;117.8376682;0.211847269;0.245353749
295670171;136.9204232;162.7636205;117.8612839;0.211409203;0.245321451
295670218;140.7086978;158.7746358;117.8478713;0.211482221;0.191155551
295670234;140.6980001;159.22743;118.0984752;0.209454034;0.193440169
295670281;140.7367004;154.8480884;118.0894193;0.208766975;0.19434141
295670312;140.7223884;154.3180463;118.0653651;0.208689904;0.200526596
295670343;138.505195;156.4325324;118.2545481;0.207497915;0.244967389
295670390;137.3268788;160.7857262;118.3512617;0.207124053;0.245004061
295670406;137.2526966;161.5535082;118.4505777;0.206480133;0.244950377
295670453;134.6556001;172.4765572;118.4871521;0.206476593;0.245056692
295670468;136.624688;167.4981088;118.5461112;0.206296846;0.244861811
295670515;141.027;161.5166823;118.5008149;0.206427761;0.196089831
295670546;141.0047619;161.3290162;118.2115152;0.209654194;0.192241605
295670578;141.0296833;158.628544;118.2317823;0.209127628;0.193083598
295670609;140.9009187;156.5231417;118.3644742;0.208685808;0.193851801
295670640;140.4545566;154.748373;118.3987935;0.2083569;0.202347284
295670671;137.7476982;157.3792636;118.4084926;0.207937092;0.244603528
295670703;137.5063372;158.6631593;118.5574976;0.206308117;0.244570734
295670750;134.481835;171.6896724;118.5296434;0.206090783;0.244714344
295670781;134.5079291;173.0679019;118.4991658;0.205812286;0.244670506
295670812;134.493616;171.766107;118.5043038;0.205921582;0.244627985
295670843;134.530445;172.3027246;118.4541577;0.206018888;0.244586069
295670890;134.6789957;171.6607319;118.2242821;0.207716314;0.244557732
295670921;134.6757035;171.603235;118.1987737;0.207731207;0.244525802
295670953;134.7257802;171.661929;118.0662768;0.208860822;0.244502248
295670968;134.7216029;171.2864405;117.9418287;0.209543281;0.244482338
295671015;134.7747857;170.8087185;117.8231655;0.210225368;0.244466707
295671046;134.8074662;170.6690722;117.7160976;0.210725601;0.244453339
295671078;134.7494265;171.0505248;117.7459686;0.210786225;0.244440235
295671109;134.8024742;171.0403166;117.6659084;0.210985967;0.244427188
295671140;134.7949967;171.4483483;117.6055699;0.211398077;0.244417605
295671171;134.5881624;172.564101;117.6960167;0.210516215;0.244400856
295671203;134.4818359;174.3790389;117.7191125;0.210726354;0.244385281
295671250;134.3746299;175.0568513;117.742617;0.210559525;0.244372143
295671281;134.3684001;174.9097153;117.6541695;0.21060373;0.244362417
295671312;134.3871246;174.4223718;117.7140514;0.209996364;0.244342398
295671343;134.4456129;173.51402;117.7908765;0.209084966;0.244319002
295671375;134.6980746;171.8273808;117.7001199;0.21024061;0.244315069
295671406;134.7472014;170.8239625;117.6138308;0.210658897;0.244302337
295671453;134.7798899;171.075847;117.6020105;0.210672222;0.244289159
295671468;134.7084537;171.6291366;117.7362163;0.209727044;0.244269333
295671515;134.7230653;171.4659706;117.8116628;0.209343925;0.244246483
295671546;134.7080885;171.4816862;117.8932802;0.208866124;0.24422302
295671578;134.6663778;171.5194515;118.1896689;0.206368467;0.244186371
295671609;134.7982542;171.4818814;118.0672896;0.207222278;0.244160723
295671640;134.8128883;171.8593596;118.0748179;0.207039232;0.244132855
295671671;134.7891033;171.7589717;118.0822488;0.206854777;0.244104897
295671718;134.7438836;172.1190805;118.2104453;0.206272555;0.244073792
295671734;134.6202196;173.1092081;118.2783476;0.206273136;0.244044462
295671765;134.6628456;173.1661556;118.2502109;0.206967481;0.244019312
295671812;134.4666596;174.9779083;118.2903593;0.206516158;0.243992602
295671843;134.4481016;175.5816867;118.4643106;0.20521275;0.243953724
295671875;136.9555039;162.3014293;118.6142212;0.20429026;0.243800687
295671906;139.6497314;157.7555984;118.703267;0.203816927;0.226886341
295671937;141.2766171;151.8502256;117.7026508;0.214683206;0.213771509
295671984;143.8458404;151.333857;115.9325132;0.221256483;0.205597715
295672015;145.4879304;150.9806915;114.8869913;0.223987545;0.20130547
295672046;146.5061758;150.8600605;115.7176914;0.222291432;0.200494576
295672078;143.4621699;148.9634353;117.4758396;0.222504423;0.233946157
295672109;143.666833;151.0292038;116.6700527;0.242594681;0.189790811
295672140;142.6835868;152.3343048;118.3436126;0.242407396;0.185637587
295672187;135.7772545;162.3656498;123.2554833;0.232283769;0.236876463
295672203;127.9509797;167.9002529;127.228777;0.231369313;0.243999253
295672234;131.8106408;148.5568736;127.8045119;0.230190707;0.22741476
295672281;130.3125924;154.8463367;125.719414;0.238629893;0.184827901
295672312;128.3243965;151.8145002;118.974858;0.23812902;0.243500014
295672343;130.468561;157.7768823;112.3496964;0.237974576;0.243258831
295672375;134.096321;156.4930307;99.14448059;0.237780812;0.242825451
295672406;135.5157886;161.3176923;92.61774139;0.237731423;0.242623089
295672437;141.722859;148.3102029;90.03778251;0.237668739;0.241838553
295672484;143.8114307;150.7463778;83.44426282;0.237813532;0.241597791
295672500;144.2017947;155.2688768;81.85613402;0.237778309;0.241522567
295672546;143.5999477;158.0774239;80.95649661;0.23769402;0.241563088
295672578;135.9985374;153.8284054;111.5804142;0.238441929;0.22461776
295672609;138.9266137;148.5713317;122.384586;0.195627877;0.243508115
295672640;140.6452486;154.6972161;122.2163104;0.196975855;0.194639345
295672671;140.46326;154.6572696;122.5256982;0.19714223;0.194615941
295672703;140.3974062;154.3671917;122.7275834;0.19666186;0.196950542
295672734;140.320974;153.9812797;123.0603025;0.196367285;0.200323857
295672781;140.2548464;154.321595;123.2603021;0.196081226;0.201330236
295672812;139.9510574;153.8817177;123.4004157;0.196595867;0.204263934
295672843;139.98852;153.878007;123.407448;0.196390958;0.202645797
295672875;139.8660949;153.8265668;123.4212651;0.196434841;0.203713446
295672906;139.7501487;156.6524493;123.567345;0.196432386;0.204035107
295672937;139.6175312;153.4894857;123.6580096;0.196543919;0.204822388
295672968;138.1139449;150.4036099;123.6572447;0.196371194;0.243466638
295673015;139.5121778;153.0459981;123.6593666;0.196186572;0.208463946
295673046;138.1456202;147.5410145;123.433013;0.197173338;0.243414664
295673078;139.089259;152.2439841;123.336157;0.196260239;0.212612882
295673109;139.0739376;152.6406053;123.3208157;0.195667986;0.212496331
295673140;139.2626998;152.7109912;122.7227258;0.196400878;0.211053342
295673171;139.6852792;152.8703237;122.0515898;0.196718487;0.208556104
295673203;139.6930553;152.4764676;122.0509676;0.194551368;0.209513711
295673234;140.3184365;153.8191148;121.6952903;0.195232256;0.199717227
295673281;138.7596111;153.5147016;121.2507831;0.205125595;0.195844775
295673312;138.5329459;153.7780766;120.7566379;0.20368507;0.197973049
295673343;137.6864164;153.785263;120.7151483;0.205628478;0.199410674
295673375;135.5868609;153.8100457;120.0242981;0.215893075;0.197142435
295673406;135.082924;154.8709282;120.5576642;0.21528782;0.201513655
295673437;133.5503693;151.0653537;120.7699452;0.215989501;0.24321264
295673468;134.1646144;158.8287875;121.16874;0.216044158;0.203365768
295673515;134.0061625;158.8365937;122.2586221;0.212855781;0.203267735
295673546;135.9504496;159.1161853;121.5267005;0.230895505;0.181548234
295673578;137.1679891;156.5670746;120.6746172;0.238207823;0.181557947
295673609;137.9416488;156.3531516;120.2036467;0.240772106;0.181566875
295673640;137.0367438;159.8033672;122.0578643;0.22860402;0.18958009
295673671;136.8159103;159.0888261;123.6005625;0.216958534;0.21014174
295673703;137.0747596;154.5605747;122.9050502;0.216031225;0.21048913
295673734;136.723433;150.7382159;121.8297395;0.215500382;0.243234302
295673781;141.139573;155.4260322;120.1710848;0.215428662;0.192267909
295673812;143.4326738;154.4728157;117.6299924;0.223478175;0.186606368
295673843;143.6419864;154.5955594;117.0401687;0.225059384;0.184800641
295673875;143.3744453;154.1967267;117.1853231;0.22165266;0.191131221
295673906;140.3891069;156.7388359;116.8664048;0.221488619;0.243366502
295673937;137.2675197;168.273231;116.8528859;0.221257326;0.243604554
295673968;137.1180645;167.9074038;116.8866826;0.221149579;0.243636326
295674015;137.022204;167.9736742;116.9282991;0.221236915;0.243664051
295674046;135.4319518;171.2299064;118.3069156;0.21103278;0.243648855
295674078;135.0337752;173.5902008;118.5051139;0.209386077;0.243634373
295674109;134.8429697;173.4668283;118.6127128;0.208747448;0.243623112
295674140;134.9023844;172.9732019;118.3269972;0.209417042;0.243615558
295674171;134.864935;172.3499485;117.7869044;0.213004612;0.243635236
295674203;134.8022337;171.7906507;117.7759097;0.213336043;0.243638589
295674234;134.8474289;172.2995567;117.7574979;0.213359686;0.243636655
295674281;134.820887;171.6547217;117.6824539;0.214224256;0.243639353
295674312;134.8263651;172.0353962;117.6980409;0.214205391;0.243638513
295674343;136.9874332;164.0327032;117.6602289;0.213800771;0.243506296
295674375;137.0841308;164.193754;117.4368744;0.213916769;0.243480702
295674406;136.8572388;164.1214645;117.3592975;0.214450934;0.243461193
295674437;137.220551;164.1729748;117.6414118;0.214940144;0.243432911
295674468;137.4947497;164.5986359;117.1998402;0.215075486;0.243402728
295674500;137.598396;164.1707729;116.8970947;0.21548495;0.243378331
295674546;137.7017598;165.0051723;116.5464054;0.216027441;0.243352393
295674578;137.6560383;164.5211337;116.4254761;0.216261567;0.243325597
295674609;137.6911611;164.258413;116.3207217;0.216258533;0.243297617
295674640;137.7068518;164.543698;116.2745646;0.216166059;0.243266807
295674671;137.7311109;164.507069;116.2112247;0.216017377;0.243236016
295674703;137.8140393;164.6613472;116.0639337;0.21586016;0.243203267
295674734;137.8194854;164.0045718;115.9842174;0.215795166;0.243171605
295674781;137.2226017;164.2590422;116.3967174;0.215936262;0.24314238
295674812;137.2642809;163.3165961;116.2609616;0.215894414;0.243117536
295674843;137.3310611;163.1810984;116.6650924;0.215833984;0.243082307
295674875;137.0157627;163.5459948;116.7908303;0.215903156;0.243048589
295674906;137.1748301;163.5780876;116.479197;0.216380631;0.243020023
295674937;137.2691399;163.6803791;116.3448109;0.216442747;0.242989839
295674968;137.3346139;163.6297057;116.2297444;0.21624683;0.242960837
295675000;137.4489177;164.0786557;116.1181422;0.216173344;0.242930546
295675046;137.5519443;164.5951211;115.9528042;0.216320937;0.24290139
295675078;137.6540339;163.567556;115.7925243;0.21655696;0.242873419
295675109;137.7265568;163.8367474;116.1077648;0.216673451;0.242846801
295675140;137.7332877;164.2712971;116.4215239;0.216536934;0.242817894
295675171;137.3909379;164.4980185;116.4650805;0.216860749;0.242789143
295675203;137.4180388;163.6767458;116.2827097;0.217000446;0.242762794
295675234;137.4470294;164.6020522;116.249292;0.217041973;0.242735354
295675281;137.0325813;164.3598714;116.9147432;0.217155504;0.242712297
295675312;137.3178704;164.3054788;116.3942828;0.217123427;0.242683968
295675343;137.3490103;164.5648645;116.3054017;0.217195553;0.242657317
295675375;137.586931;164.656082;115.802747;0.217243879;0.242630217
295675406;137.5755056;164.3038063;115.785838;0.217173049;0.242601538
295675437;137.6434858;164.7100628;115.7137556;0.217107666;0.242571948
295675484;137.6642754;164.4999883;115.6333777;0.217054919;0.242543564
295675515;137.1990642;164.8850299;115.9355883;0.217120416;0.242517359
295675546;136.8955478;164.1257026;116.131832;0.217040968;0.242490824
295675578;136.9834362;164.9615505;115.9591765;0.217455149;0.242470965
295675609;137.0620712;164.3351969;115.8655883;0.217608056;0.242448418
295675656;137.1999522;165.0423281;115.686661;0.217611099;0.24242491
295675671;137.2400968;164.4984073;115.6414259;0.217566;0.242401469
295675703;136.9221734;164.8708213;115.8483913;0.21778946;0.242379498
295675734;137.2253474;165.020112;115.5004542;0.218125114;0.242357256
295675765;137.2886573;164.4705884;115.5010119;0.21787305;0.242335484
295675812;137.3587684;165.177604;115.4993334;0.217708908;0.24231369
295675843;137.3666196;164.5542811;115.4336279;0.217727731;0.242289901
295675875;137.4104112;164.4766033;115.2584642;0.218404083;0.242271622
295675906;136.8756612;164.2539;115.7383057;0.218346082;0.242250428
295675937;136.6108499;164.3171477;115.9402667;0.21843645;0.242229831
295675968;137.9124614;160.8774555;116.0235596;0.218423457;0.219923516
295676000;137.0826779;162.8245644;115.8853555;0.218312944;0.239924112
295676031;136.7860831;163.1837879;116.100776;0.21830293;0.241161589
295676078;136.989684;163.0797927;115.8991532;0.218043617;0.242122963
295676109;137.0561785;164.7996273;115.7665297;0.217789749;0.242106237
295676140;137.1695462;164.85648;115.6639833;0.217697217;0.242085649
295676171;140.2313546;160.5990431;115.6179355;0.217646888;0.180493267
295676203;136.6087199;165.6061774;115.8811278;0.217768994;0.242060993
295676234;136.8221625;165.7571634;115.6873074;0.217829444;0.24203624
295676281;137.1173751;166.5324078;115.9766883;0.218042566;0.242010931
295676312;137.1458204;165.9072623;115.8741531;0.218230654;0.241988341
295676343;137.2009344;165.995251;116.3495097;0.217253928;0.241957407
295676375;136.7933243;165.9261838;117.0150833;0.215902649;0.241917484
295676406;137.2648938;165.8093785;116.749683;0.217470025;0.241890438
295676437;140.2897061;159.9937489;116.5901563;0.2183244;0.181701671
295676468;137.4765012;168.3822393;116.4082345;0.21863086;0.241857381
295676515;137.9693081;166.430356;116.1382216;0.220273832;0.241831452
295676546;138.4446824;170.2071775;115.9440676;0.225028685;0.24185212
295676578;141.2510387;163.8586032;113.5037069;0.23329837;0.241909999
295676609;144.4443843;151.0746674;113.8817275;0.230396135;0.239644346
295676640;147.8557552;147.7976045;115.1884521;0.213458939;0.215830806
295676671;142.9836011;149.5026928;118.5126504;0.211414098;0.224283532
295676703;140.3304913;157.2511581;119.8432029;0.216826114;0.220011849
295676734;140.8785421;157.5233033;118.2513795;0.239912398;0.191097687
295676781;138.9795763;152.8308538;120.790194;0.239360177;0.18963954
295676812;135.7174708;154.5196354;123.9378421;0.236503109;0.209031025
295676843;134.1856339;153.6136312;124.6166563;0.23365598;0.216458711
295676875;133.1535784;158.8777423;124.9511831;0.231100969;0.190521847
295676906;128.0340353;150.8655157;123.8594992;0.233627276;0.241682871
295676937;128.0049216;154.8631934;117.6415174;0.235645784;0.241422792
295676968;130.6895417;159.3681402;110.0472881;0.235598464;0.241151865
295677015;129.0476406;157.3146342;113.8639832;0.235702864;0.241345069
295677046;132.2902451;152.8284111;114.7432036;0.235905785;0.2052523
295677078;139.5925457;145.0181592;98.15369383;0.235704038;0.237057217
295677109;141.9968111;149.6878111;91.46386511;0.235937184;0.239992131
295677140;143.9505145;153.8044626;84.75182012;0.236050316;0.239782551
295677171;144.2229562;153.5347083;83.42447113;0.235982061;0.239721067
295677218;138.9285185;165.2252244;82.45377673;0.236137531;0.24048776
295677234;132.6938968;156.2844612;113.0398171;0.237009867;0.241476158
295677281;135.5763372;170.6007761;120.6408645;0.195067491;0.242053981
295677312;135.5265266;171.139838;120.7971601;0.19514115;0.242038594
295677343;135.5051052;171.8075323;120.9907156;0.195668928;0.24203439
295677375;135.3866229;163.7531929;121.2944856;0.196306113;0.242030451
295677406;135.2891706;172.2884632;121.649577;0.196291113;0.242029717
295677437;135.1250268;172.59488;121.795047;0.196843994;0.242029191
295677468;135.1507524;164.6542177;121.798833;0.196696133;0.24202446
295677515;135.1097248;173.8662925;121.9455052;0.196881013;0.242024192
295677546;135.0858384;173.7003256;121.9887623;0.196944055;0.242025527
295677578;135.0068867;173.9980327;122.0298534;0.196960745;0.242009701
295677609;134.7543755;172.734285;122.0611283;0.198058713;0.241995385
295677640;134.5626742;174.9598377;122.1986789;0.198725583;0.241995082
295677671;134.5421051;173.5518654;122.2473339;0.198720975;0.241980985
295677703;136.8277202;139.3520155;122.172354;0.198528253;0.241827659
295677750;137.5467931;169.8145661;122.107278;0.197936199;0.241765086
295677781;137.9068145;166.5277613;121.9883744;0.197571795;0.241740994
295677812;140.100438;153.7848285;121.336899;0.197226627;0.207210742
295677843;139.7691612;155.267684;121.0248908;0.198889163;0.201857085
295677875;138.7657578;155.5729837;119.9343582;0.207518004;0.199860518
295677906;138.4318265;148.9918503;119.231064;0.207500708;0.241555098
295677937;138.4160833;152.7076679;119.6310278;0.205850293;0.21608536
295677968;137.2211074;151.261981;120.2535518;0.207014035;0.241537376
295678015;135.2410555;165.0457858;120.5013283;0.207156675;0.24168386
295678046;134.892739;159.9421291;121.0679667;0.20626756;0.241680305
295678078;136.8104671;158.530737;121.6721602;0.204513981;0.198671758
295678109;136.5701738;158.7206917;121.8475506;0.202947209;0.19917958
295678140;136.4548842;158.519486;122.829416;0.199775398;0.202050557
295678171;136.6291069;158.2468251;123.386984;0.200787993;0.198892689
295678203;137.2164701;158.8499838;123.4888715;0.201028426;0.199394987
295678250;138.4674808;158.7869408;122.8851745;0.202128244;0.197369472
295678281;138.8909616;158.8893285;122.5962683;0.203541272;0.199133453
295678312;139.3274521;148.8839597;120.8668322;0.210118055;0.241496454
295678343;138.6830299;153.8375585;120.2348492;0.209858539;0.241570686
295678375;138.1348426;155.9453614;120.4179666;0.210178257;0.241620234
295678406;140.8963325;153.2069118;120.2523855;0.21158212;0.192651353
295678453;140.4741581;155.1313094;120.2773136;0.212593366;0.198863207
295678468;141.808193;154.2979883;118.9345786;0.215236115;0.198705497
295678515;143.3273373;153.9597785;117.3934653;0.223584931;0.18850092
295678546;143.7764242;153.7108884;116.9608644;0.22504532;0.186039038
295678578;143.7721268;153.676257;116.8524668;0.225179156;0.185954945
295678609;143.4902925;153.4679707;116.8106441;0.224986685;0.189406571
295678640;142.1364453;149.8427496;116.781379;0.223221032;0.238880003
295678671;140.6853531;148.2624508;117.9052433;0.213509183;0.24164499
295678703;141.7801138;152.9378412;117.9780382;0.211874171;0.207548979
295678750;138.3411498;158.1515036;117.89079;0.211866764;0.241792035
295678781;138.6191727;154.253562;118.4099338;0.211743629;0.24176043
295678812;139.0190537;151.9064499;118.3517394;0.211443963;0.241720204
295678843;138.7809737;151.8082469;118.2444052;0.211906868;0.241732532
295678890;138.9679869;151.6527727;118.15279;0.21103975;0.241712891
295678906;138.6097765;152.4149005;118.2459887;0.210621043;0.241717385
295678953;138.7366241;151.9731619;118.2790261;0.209557762;0.241691219
295678968;138.7077353;151.3813983;118.2290473;0.208591015;0.241693104
295679015;138.6866666;151.0530284;118.2202048;0.20861508;0.241686625
295679046;138.74675;151.0367901;118.641813;0.208620362;0.241673483
295679078;138.8997437;150.8409349;118.5552945;0.20820672;0.241649189
295679109;138.9161026;150.7569571;118.5243389;0.208244415;0.241635013
295679156;139.0031762;150.1833278;118.2921521;0.209204203;0.241628239
295679171;138.9179458;149.9221036;118.2423996;0.209842564;0.241626938
295679203;139.3350205;148.8520078;118.1637528;0.209907531;0.241585307
295679250;139.1042511;148.8851476;118.2228734;0.209731372;0.241592465
295679281;138.7064847;149.9828649;118.1524226;0.209966943;0.241620599
295679312;139.5323868;150.110181;118.0504258;0.209942092;0.241542424
295679343;141.0930241;155.4949227;117.9896093;0.21008308;0.191219035
295679375;138.9195899;148.4002239;117.9423909;0.209314848;0.241594956
295679406;138.522334;150.4347316;117.9611259;0.209248331;0.241618409
295679453;138.2403704;151.2049694;118.0067464;0.208897059;0.241625958
295679468;137.9842783;151.6426333;117.9522191;0.20897941;0.241642461
295679515;138.1717193;151.266472;117.9641523;0.208932596;0.241620257
295679546;138.1684084;150.6850744;117.8252987;0.210006666;0.24162028
295679578;138.302041;150.3959534;117.8784487;0.208840951;0.241605006
295679609;138.0175408;150.7848431;117.8113771;0.208890943;0.24162525
295679640;137.8844287;151.6984601;117.8679689;0.208411272;0.241624829
295679687;137.8646328;150.5325766;117.7230664;0.210377179;0.241627106
295679703;138.0004278;150.5505025;117.7851507;0.209875973;0.24160714
295679750;137.8066314;151.5002146;117.7927753;0.209693931;0.24161721
295679781;137.9937093;150.9101705;117.7791604;0.209657001;0.241599523
295679812;138.1364942;150.4913485;117.787344;0.209676665;0.241583238
295679859;138.2116968;150.2670292;117.7744359;0.209484062;0.2415745
295679875;138.3737888;149.8638472;117.7124519;0.209355213;0.241561833
295679906;138.4192491;149.7795568;117.6818713;0.209512541;0.241553889
295679937;137.9264455;150.177321;118.3921133;0.209388752;0.241590662
295679984;138.0660172;149.9745783;118.2482063;0.209221862;0.241576322
295680015;138.1707689;149.9862684;118.1774399;0.209071904;0.241562367
295680046;138.2256297;149.9094968;118.1680732;0.209022578;0.241553115
295680078;138.3290598;150.2379173;118.19702;0.208708411;0.241532258
295680125;138.3435743;150.1567043;118.181341;0.208642212;0.241526484
295680140;138.3933115;149.7796037;118.1576477;0.208672753;0.241515861
295680187;138.4361006;149.9303087;118.1248638;0.208692847;0.241508001
295680203;138.1767838;150.6118827;117.9533828;0.209737524;0.241535235
295680250;138.0186381;151.0732858;117.840952;0.210211348;0.24155102
295680281;138.0525579;150.93904;117.8391552;0.210215512;0.241546046
295680312;138.1457542;150.8564739;117.9162329;0.209701291;0.241530576
295680343;138.3471394;150.3117282;117.8303817;0.209971612;0.241516872
295680375;138.3820563;149.9990192;117.8561331;0.210180654;0.241513738
295680406;138.1987599;151.0128524;117.7742395;0.210199291;0.241531317
295680437;138.2762239;150.930291;117.7829308;0.209948735;0.241520118
295680468;138.122955;151.3293047;117.6920937;0.210443745;0.241535359
295680515;137.9965326;151.2527853;117.6159582;0.211396682;0.241549181
295680546;138.102177;150.7708919;117.5593752;0.211606107;0.241543427
295680578;137.8226987;153.0665374;117.5682773;0.211851857;0.241564757
295680609;137.9634484;152.2802084;117.6465957;0.21159141;0.241550025
295680656;137.717669;153.0335797;117.7662462;0.210799087;0.241567519
295680671;137.8465727;152.6930102;117.8592207;0.210439816;0.241554415
295680703;137.9845445;152.1706566;117.8012193;0.210085656;0.241548815
295680750;139.5022563;153.085266;118.7573017;0.208039918;0.213195826
295680781;138.7593655;146.030166;119.352518;0.20671731;0.241482049
295680812;138.826531;145.7714253;119.249283;0.206152674;0.241476366
295680843;139.390611;145.7409548;118.2893214;0.211940479;0.241528024
295680875;141.8353633;152.5679636;117.9294375;0.215358127;0.20720454
295680906;143.9624061;151.6967827;116.5770263;0.219144983;0.201491033
295680953;144.2367712;151.6937761;115.9659796;0.222228398;0.198974744
295680968;143.0221268;158.2880797;115.4003134;0.219587477;0.241469123
295681015;146.2687962;153.0366299;116.0431456;0.219812717;0.19452762
295681046;147.0939129;153.0259198;116.2702263;0.216798641;0.196855271
295681078;147.4337581;153.4726595;115.8627245;0.227265773;0.186556601
295681109;145.1939825;154.534846;116.0749016;0.234794888;0.180793161
295681140;143.8785131;154.477317;117.4850302;0.235400156;0.180146621
295681171;141.9789788;159.3490728;120.5289125;0.232044421;0.180149279
295681218;138.6445182;152.6745546;125.0309445;0.229340216;0.209238845
295681234;132.9772118;150.4994968;128.9732893;0.210086608;0.239893252
295681281;131.6877941;149.996207;128.4587028;0.213538761;0.241350616
295681312;131.5498534;150.6338037;128.4317616;0.212152118;0.241338589
295681343;130.9289059;153.7391123;127.972927;0.211710895;0.241390486
295681390;130.7668944;154.7435316;126.701484;0.214187042;0.24140638
295681406;130.8100977;155.7505768;126.2154887;0.214600758;0.241409818
295681453;130.9528652;148.6286106;125.2274434;0.215706082;0.241407944
295681468;132.5356862;155.4834738;124.1156001;0.217145928;0.199990278
295681515;133.1772157;155.089791;123.1981643;0.220533083;0.195126233
295681546;133.5098518;155.5931942;122.9597541;0.21940964;0.196836613
295681578;135.9958967;156.3308851;123.8507242;0.204048223;0.200071198
295681609;135.7052824;146.7301474;123.8787778;0.201613702;0.241389206
295681640;136.4582231;153.1659846;123.9867208;0.200903634;0.212309149
295681671;136.5662291;153.2084597;124.2218454;0.200481583;0.211688798
295681718;135.4619444;146.7138611;124.3325796;0.200243373;0.241430599
295681750;136.2797755;153.4569525;124.6723514;0.199950753;0.212644154
295681781;136.2875465;153.1905311;125.0164841;0.199969874;0.212318906
295681812;136.3013949;153.6388695;125.301236;0.199839226;0.212169767
295681843;136.2231775;153.7296916;125.8166487;0.200651903;0.21183138
295681875;136.6553582;153.3333803;125.1664995;0.203119201;0.211931139
295681921;137.2865395;153.82503;125.297205;0.202895764;0.202429751
295681953;137.4404112;153.9200806;125.4280748;0.202646383;0.199469539
295681968;137.3079285;152.5896422;125.4880438;0.202469554;0.201425875
295682015;136.531172;147.1452265;125.6947752;0.20301835;0.24139638
295682046;136.8233976;150.5262765;125.7869873;0.202353024;0.218270521
295682093;136.7700506;150.5756076;125.8650525;0.202514456;0.217592436
295682109;136.7126839;151.670009;125.9353602;0.202788955;0.21688914
295682140;136.6589013;152.0492313;126.0668999;0.202890162;0.21634944
295682187;136.528493;151.9597151;126.1990005;0.203140553;0.216022045
295682203;136.5110217;151.8685872;126.2309872;0.203070912;0.215208174
295682250;136.4999087;152.0595191;126.2256115;0.202877828;0.21451728
295682281;136.5074445;151.773454;126.1850924;0.20253963;0.214248451
295682312;136.349786;151.63969;126.2202249;0.203008251;0.213878188
295682343;136.3062211;152.5265711;126.2404075;0.203076392;0.213666561
295682375;136.534624;152.6878181;125.9828182;0.203049171;0.213435191
295682421;136.5518007;152.5596557;125.8968927;0.203020032;0.212796671
295682437;136.6414997;152.7738182;125.8004059;0.202526669;0.212893696
295682484;136.8015911;152.1809149;125.2895909;0.20264988;0.212746502
295682500;136.8506553;153.0222695;125.0879724;0.202407196;0.211990922
295682546;136.8789425;153.1772334;125.0305844;0.202210944;0.212005372
295682593;136.900308;153.2764462;124.77863;0.204360184;0.20955419
295682609;136.8392517;153.1077772;124.4418205;0.206079754;0.20830982
295682640;136.9144191;153.0954788;124.2490842;0.205915579;0.207127387
295682671;136.9401657;153.1175657;123.739522;0.207778759;0.20513137
295682718;136.8448627;153.1012183;123.8252495;0.207740461;0.205363041
295682734;136.8167578;153.3124962;123.7731305;0.20853767;0.20491142
295682781;136.6374558;155.4771943;124.0248407;0.208267397;0.205467177
295682812;133.5534247;169.2432589;123.9578936;0.209791694;0.241793152
295682843;134.1388233;160.1731485;123.614943;0.2100312;0.241727332
295682875;130.3667897;171.4275873;123.0907283;0.212937235;0.241996861
295682906;130.0405111;170.5199714;122.817367;0.215684955;0.242003636
295682953;129.9786209;171.4169057;123.017365;0.215524847;0.24199181
295682968;129.8781273;171.7211079;123.0264981;0.215978835;0.241986439
295683015;129.8544367;172.0238026;122.5235254;0.216417261;0.241978275
295683046;129.5575118;172.6234683;122.4648598;0.21554264;0.241975674
295683078;129.4847216;172.8117997;122.721138;0.215963486;0.241973103
295683109;129.2807133;172.9338663;123.1226437;0.215022505;0.241969724
295683140;128.7364998;172.9655033;123.1336311;0.216247175;0.241966836
295683171;128.4842457;172.9898522;123.5919495;0.215891502;0.241965511
295683203;133.9311112;152.7651837;123.5308245;0.214638104;0.241573902
295683250;128.2493334;170.5179693;123.4697109;0.213084749;0.241994942
295683281;134.6505404;158.1825778;124.6389226;0.205516806;0.208113675
295683312;135.4574238;154.2740357;125.054395;0.201695633;0.204320531
295683343;135.6560879;154.4353433;125.302089;0.198788413;0.202785347
295683375;135.545113;154.004086;125.3640858;0.197966097;0.208317651
295683421;136.0259598;154.0557733;125.2700278;0.19713607;0.205518033
295683437;135.9932508;154.0305336;125.5736458;0.197268389;0.210056984
295683484;132.2679551;164.1741088;125.8210774;0.196898654;0.241736737
295683515;132.4621564;166.1050838;125.4251862;0.196688158;0.241731738
295683546;136.2802227;152.3002562;124.2160287;0.198568586;0.241507607
295683578;138.8368447;158.0006815;123.9933974;0.199297783;0.198156124
295683609;133.5429767;161.0621473;123.9173953;0.199885331;0.24174235
295683640;131.0847124;166.1482537;122.9780111;0.201999599;0.241960881
295683671;136.7221298;153.0502979;122.7138442;0.205152458;0.241541472
295683703;139.0902079;155.9271944;122.5953321;0.20739334;0.191800402
295683750;133.9861899;160.7272282;122.5892622;0.208356799;0.241795254
295683781;136.4712718;149.7808077;122.3717194;0.210288998;0.241602615
295683812;136.7780842;149.5687944;122.4403556;0.210692094;0.241575343
295683843;136.8496261;148.9321381;121.8563271;0.211344811;0.241578623
295683890;138.4543591;155.9703503;121.3745279;0.211449523;0.193879128
295683906;138.5130372;156.0481709;121.4834672;0.211358004;0.193875708
295683937;138.627663;156.1402416;120.9444475;0.211830787;0.193371687
295683968;138.7053295;155.9872677;120.5407965;0.211613273;0.193471192
295684015;138.7558934;155.6493558;120.2594309;0.211852119;0.193022891
295684046;138.85352;156.0489674;119.9590474;0.211850656;0.192976495
295684078;138.9192474;156.0953407;119.8052173;0.211987021;0.192922832
295684109;137.9755892;147.7105018;119.6159084;0.211897699;0.241566959
295684140;136.9297382;150.7484867;119.4726125;0.211928272;0.241673478
295684171;136.4997382;152.1528374;119.3190335;0.212010939;0.241720276
295684203;137.0500466;151.0073219;118.9747266;0.21228644;0.241692988
295684234;137.1260954;150.3840983;118.8795354;0.212235791;0.24169383
295684281;136.4263032;150.700602;118.8221457;0.212381221;0.241759912
295684312;136.0599953;151.0956785;118.7508937;0.212246282;0.241796666
295684343;137.1130456;150.7972053;118.7313466;0.212189575;0.24171462
295684375;136.5862888;158.1713393;118.660369;0.212028674;0.241764518
295684406;136.2208336;152.8310435;118.5830687;0.212071866;0.241801302
295684437;136.0118475;153.1707892;118.55984;0.212069862;0.241825534
295684484;135.3222705;154.1550565;119.1851534;0.211055691;0.24184376
295684515;134.9558744;153.8279575;119.4396967;0.211024851;0.241856858
295684546;134.6769707;153.79493;119.6097866;0.21066021;0.241869936
295684578;134.8460045;153.7520259;119.2377743;0.210643858;0.241879085
295684609;134.8175774;153.7648773;119.1999056;0.210667879;0.241885791
295684640;134.7495638;153.7945432;119.1403972;0.210606704;0.241898428
295684671;134.7893595;153.6337191;119.0326577;0.210638549;0.241903569
295684703;134.8207466;155.4429159;118.9102238;0.21076508;0.2419098
295684734;135.0095342;154.9085986;118.617341;0.210958396;0.241917169
295684781;135.0899701;154.3723124;118.5012744;0.211111366;0.241923381
295684812;135.4808809;153.560219;118.4961678;0.211061786;0.241896832
295684843;135.4835588;153.7011704;118.4464024;0.210923136;0.241904087
295684875;135.392683;153.0942444;118.3719938;0.211076903;0.24191992
295684906;135.7542628;152.9194195;118.2143799;0.211199083;0.241903187
295684937;135.7516722;153.3293853;118.1262785;0.211224173;0.241913681
295684984;136.2188403;152.4470063;118.1294325;0.21111412;0.24188181
295685015;135.6647498;152.5050812;118.5874036;0.210542992;0.241902152
295685046;135.222742;152.6678466;119.0355516;0.209980202;0.241916454
295685078;135.2447801;152.7456892;119.0102248;0.20988585;0.24192263
295685109;135.1535759;152.6847522;119.3166469;0.209438688;0.241914159
295685140;135.751377;152.390915;119.113188;0.209247361;0.241885724
295685171;135.5045551;152.6452471;119.3112781;0.208986202;0.241893587
295685203;135.1195506;152.4565164;119.5901791;0.208543797;0.241909493
295685234;135.2109296;152.3924865;119.6906651;0.208451071;0.241897046
295685281;135.6944719;152.3768601;119.1577507;0.208779849;0.241893353
295685312;135.8301223;152.0603193;118.6902159;0.208764041;0.241910752
295685343;135.6976584;152.4414438;118.5712307;0.208770821;0.241929713
295685375;135.6073351;152.0582841;118.8471919;0.20850698;0.241919586
295685406;135.2403082;152.4022181;119.1381766;0.208248595;0.241929794
295685437;135.4435034;152.7531209;118.7147693;0.208245635;0.241934435
295685468;135.8015836;152.674599;118.6814316;0.20844041;0.241907863
295685515;135.9258174;152.3875741;118.6994718;0.208368068;0.241898338
295685546;135.9667269;152.9300325;118.532861;0.208259526;0.241908308
295685578;136.0374826;152.4552144;118.5068348;0.208367051;0.241903828
295685609;135.4274327;153.6577247;119.0402277;0.208081776;0.241919195
295685640;135.4279431;154.0350641;118.8981262;0.208088716;0.241930049
295685671;135.4624261;154.3692612;118.7320272;0.208084488;0.241936997
295685703;135.6010595;154.1112527;118.4130908;0.208169369;0.241945162
295685734;135.4477486;153.5092542;118.409158;0.208195438;0.241959059
295685781;134.9949448;153.984122;118.9390885;0.207955868;0.241960728
295685812;135.8347056;153.3750393;118.8271978;0.207869549;0.241903621
295685843;135.6209489;153.2275436;119.2207512;0.207663602;0.241895294
295685875;135.0678796;153.3204904;119.5401066;0.207531179;0.241917548
295685906;135.1210696;153.5964183;119.348938;0.207532612;0.241926204
295685937;135.3739076;153.0043761;119.1874467;0.207559533;0.241916925
295685984;135.2868092;153.2354814;119.139455;0.207543248;0.241925954
295686015;135.2518496;154.3266353;119.0114733;0.207575399;0.241934496
295686046;135.2781083;155.1398082;118.8586689;0.207649666;0.241940789
295686078;135.196011;154.3230434;118.7333333;0.207663273;0.241956065
295686109;135.2249175;154.8170142;118.5619716;0.207985403;0.241961472
295686140;135.5306336;154.1893079;118.5398068;0.207934507;0.241940009
295686171;135.4556922;154.1807732;118.5441413;0.207962627;0.24194514
295686218;135.4746857;154.1927753;118.4510191;0.207972548;0.241948328
295686250;135.0097245;155.0661481;118.981712;0.207649284;0.241950518
295686281;134.9652323;155.3426795;118.9713341;0.207660582;0.241954011
295686312;134.5212061;154.9275557;119.4402628;0.207726594;0.241957693
295686343;134.4549251;156.3535094;119.4486379;0.207715832;0.2419613
295686375;135.030943;155.356356;119.2803054;0.207927611;0.241924812
295686421;134.7010124;155.2649619;119.5735312;0.207829401;0.241930643
295686437;134.5974032;153.7120789;119.3815597;0.208209328;0.24195281
295686484;134.579337;153.8727388;119.391978;0.208263263;0.241955116
