TimeStamp;AngleElbowRight;AngleWristRight;AngleShoulderRight;AngleElbowLeft;AngleWristLeft;AngleShoulderLeft;LShoulderElbow;LElbowWrist
297561515;116.3028977;146.5633861;109.043672;135.2665313;153.203562;128.7297658;0.235843262;0.250303948
297561531;130.5366098;172.973333;119.0107861;146.1007335;166.3694761;128.1870492;0.196984553;0.225016745
297561546;131.7661191;170.633784;119.115641;146.8241191;164.431759;128.2011;0.196714321;0.224943286
297561578;132.4392021;166.7485792;119.0804997;146.6163782;164.905877;128.1871544;0.196813108;0.224904908
297561625;132.7707285;165.6113057;119.0775304;146.5355108;164.8062054;128.1684938;0.196821422;0.22488503
297561656;133.4714185;160.9754099;119.0618443;146.4939157;164.9288653;128.1663417;0.197220942;0.224842421
297561687;137.6078775;156.305201;119.1439667;146.4322299;164.8928034;128.1503487;0.197296235;0.192031583
297561718;137.8692862;156.3654765;119.14897;147.3035554;164.0730802;128.1252775;0.197452083;0.190336683
297561750;133.4285651;162.6261888;119.1389276;147.475512;163.842868;128.1394811;0.197529597;0.224846554
297561796;138.113432;155.218743;119.3587215;147.0385798;164.4788789;128.0840996;0.196432336;0.192352127
297561812;135.3147146;158.025055;119.3727655;146.7304233;164.906031;128.0168039;0.196123591;0.216622552
297561859;129.5487642;175.1810149;119.393039;146.6107459;164.9691725;128.0203561;0.196381502;0.225128266
297561890;134.3148323;159.0434022;119.3796744;147.1068615;164.2858777;127.995969;0.196588466;0.224358603
297561921;130.4020023;174.8498625;119.4999299;146.871646;164.6357978;128.0195152;0.195656426;0.225099982
297561953;130.3601913;175.2455089;119.5164636;146.5410002;165.3953333;128.0031803;0.195962828;0.225110408
297561984;130.3989733;175.4203928;119.5576187;147.0787536;164.9774055;128.0032101;0.195579257;0.225110475
297562015;130.294477;172.6135314;119.4994184;146.8287107;164.901614;128.0049159;0.195937313;0.225125257
297562062;134.3237414;156.3755283;119.4732124;147.0956948;164.9620895;127.98158;0.196406741;0.224468997
297562078;136.8754964;153.5928802;119.4397623;147.4470291;163.760891;127.9934331;0.196614882;0.199151522
297562125;137.3145093;147.8840178;119.4056637;147.6471876;164.1993621;127.9845461;0.196673473;0.19628356
297562156;137.4489143;147.4559172;119.4315492;147.1141853;164.5647175;127.9756182;0.196787131;0.194987948
297562187;133.6190676;158.9084356;119.4182002;146.8873291;165.2120531;127.9666358;0.196938285;0.224972416
297562218;133.6873976;158.4704163;119.5125986;146.7087222;165.4710512;127.9553666;0.195933979;0.224978816
297562250;133.7836076;159.2259137;119.6384017;146.6582797;165.3384544;127.9683515;0.194911741;0.224962549
297562281;136.6712135;155.249902;119.6538026;146.6268906;165.307569;127.9722898;0.195848361;0.199170109
297562312;136.9293461;149.4141265;119.7229242;147.1243484;164.2125134;127.9367573;0.195456993;0.197715733
297562343;137.0069656;149.2640932;119.6574938;147.2942944;163.6781535;127.9737604;0.195673637;0.196820837
297562390;137.1399788;149.0982653;119.6534278;146.9103198;164.8004024;127.9702033;0.195727461;0.195923844
297562421;137.2426193;149.6751174;119.6485607;146.6762032;165.0546937;127.9631402;0.195782037;0.19523194
297562453;137.2925944;150.0647528;119.6411482;146.5387458;165.3366359;127.9468604;0.195859102;0.194829658
297562484;137.2027141;156.962135;119.6523023;146.5359449;165.7145361;127.9759598;0.196290705;0.194246783
297562515;137.1686829;156.7842998;119.6572617;147.2932428;164.0555185;127.9605642;0.196368486;0.194193371
297562546;137.3960243;156.4101678;119.5192625;146.9522161;164.5598625;127.9469863;0.196565621;0.193494005
297562578;137.475877;156.6686994;119.509178;147.2006494;164.2612933;127.8959618;0.196552995;0.192990025
297562625;137.5015977;156.2844046;119.5188012;147.3152775;164.0131637;127.8839582;0.196637285;0.192544428
297562656;137.5030329;156.1620586;119.4711853;146.8563789;164.8128371;127.8924828;0.196793559;0.192460296
297562687;137.5644296;156.2010383;119.5638257;147.0961851;164.6661919;127.9409535;0.196292994;0.192905588
297562718;137.5622624;156.4979614;119.566227;146.815195;164.909117;127.9604523;0.196401914;0.19278487
297562750;137.5565635;156.0773494;119.5813861;144.8494083;170.9600214;127.9737723;0.196438933;0.192598292
297562781;137.5690156;155.9096069;119.5874243;146.1944363;167.2843387;127.9565108;0.196455745;0.192504084
297562828;137.786316;155.9186413;119.6411935;146.4306761;166.2358374;128.0132812;0.195421903;0.192837749
297562859;136.0055873;159.1738764;119.7265665;146.5817013;165.2508941;128.1486993;0.195132114;0.211500406
297562875;134.2315571;162.9885092;119.7019861;146.7333268;164.8392428;128.1859767;0.195178658;0.225005357
297562921;129.5252643;173.2797062;119.6872666;146.1218475;165.9273389;128.2147199;0.195486478;0.225290712
297562953;129.579772;173.453422;119.7001257;146.1430822;164.7567573;128.263234;0.195449818;0.225286587
297562984;129.8177883;173.6843571;119.7049071;145.1889543;165.6640402;128.3561281;0.195184599;0.225270146
297563015;129.8855001;173.7412058;119.6833345;145.2696349;164.5785429;128.4350635;0.195444082;0.225262262
297563046;129.7441043;166.5236462;119.6908108;146.3540282;162.4422231;128.6536156;0.196148269;0.225259969
297563078;129.8299379;166.2510658;119.7732538;146.4845919;158.2479491;128.7024082;0.19509761;0.225251867
297563109;130.0262362;166.4091353;119.7220654;146.5758072;156.5352116;128.8068716;0.194397185;0.225245096
297563156;129.9920047;134.0241892;119.7969555;146.2031679;155.331373;128.8710618;0.19392968;0.225243996
297563187;135.6878662;144.3218236;119.7883741;143.4147526;157.0766185;129.0370319;0.193928318;0.213451402
297563218;137.8750612;142.4271901;119.8589648;141.057604;156.1467891;129.1563695;0.193299955;0.198914812
297563250;138.0651159;140.9586285;119.7824202;133.8531982;149.1920846;129.217525;0.193398871;0.197957786
297563281;138.1167689;140.261512;119.7754379;117.1457616;175.812671;129.346059;0.19381097;0.198232066
297563312;138.225119;137.4481176;119.9091098;130.270817;147.5364215;129.5189957;0.193109079;0.198542246
297563343;137.5934136;140.1509801;119.9050053;129.2759578;144.147789;129.6593641;0.190979609;0.2077673
297563375;138.5627817;139.7730331;120.3013519;127.7770325;141.4795664;129.6972196;0.186869911;0.204873869
297563406;137.6282792;139.817118;120.5375951;121.6829439;149.0529375;129.9641864;0.185177906;0.213030697
297563453;137.9194676;137.1033923;119.7235367;121.5734414;140.3240214;130.0711357;0.190840938;0.200608166
297563484;138.4711502;137.4070503;119.8976511;117.5443549;148.2155567;129.4598893;0.189713555;0.197658846
297563515;137.0641005;136.5882877;120.082813;110.8390192;161.0666567;129.0580791;0.189773379;0.207504105
297563546;137.2401587;131.0702181;120.1693911;111.0390953;155.8739738;128.8543455;0.189836304;0.204613092
297563578;136.871819;129.6830155;120.0412958;108.8062797;155.0820555;128.8015311;0.192391538;0.201570434
297563609;137.0614746;127.4887878;120.181724;106.95148;153.8738953;128.6755583;0.191831529;0.200565957
297563656;137.4397029;126.4314049;120.4884119;105.475587;151.8497996;128.33734;0.191108284;0.19917977
297563687;138.4014769;122.868083;120.8251164;102.3901839;151.4420951;129.4166584;0.187826803;0.197483928
297563718;137.911739;119.7045767;120.9891429;100.5489654;150.7053584;129.5479795;0.191395275;0.194553371
297563750;137.7747624;146.8168022;121.4289242;117.9088086;123.8217355;122.732007;0.191914205;0.1938187
297563781;137.6931319;152.557142;122.4305517;105.8624267;139.7586042;123.316302;0.191727967;0.19331815
297563812;137.5630066;152.4228022;125.0267336;105.5713623;128.8641507;123.6993133;0.193131997;0.1915601
297563843;137.6158389;152.702187;126.0108185;104.1980945;131.4598135;123.9727552;0.19333194;0.190860117
297563875;131.5270373;155.7313217;124.2153289;102.9861691;131.977664;124.2249692;0.219657122;0.192038937
297563921;127.6258638;169.0964606;124.2361169;101.2072903;133.2008365;124.4326648;0.221468115;0.225382735
297563953;128.9889082;166.387198;126.2687806;100.0319833;134.18455;124.1115927;0.206773311;0.225296556
297563984;129.0675104;166.4398623;127.9105626;98.94878388;134.3965241;123.9299017;0.205099972;0.225287062
297564015;129.1252077;166.549383;128.0045306;98.28011918;139.7061853;123.8273183;0.204599664;0.225282573
297564046;129.124604;166.6102576;128.508313;97.55966255;142.1042729;123.6751829;0.203866499;0.225277738
297564093;132.7709146;163.0467936;128.6253909;97.34111342;146.8563663;123.5571124;0.203162547;0.215661351
297564109;132.8777597;163.0706348;128.7287539;97.19299379;148.3509839;123.609531;0.202333369;0.215960748
297564156;135.7148596;162.3506224;128.7061346;97.13527036;150.8950482;123.669055;0.201924951;0.189734459
297564187;133.9812292;163.378381;128.7951456;97.14005909;150.8464534;123.7125464;0.201131108;0.207375405
297564218;133.6953481;163.4832746;128.8081274;97.2489702;153.0279856;123.7238044;0.200704402;0.211318865
297564250;134.9964492;162.8275292;128.8573023;97.34628075;154.1551657;123.7083454;0.20051876;0.198168059
297564281;135.6619524;163.046745;128.8607015;97.5959873;154.1970484;123.6884443;0.200017921;0.192190005
297564312;135.7729767;162.6471442;128.8663677;97.68360194;154.0285201;123.6032899;0.200031012;0.191210619
297564343;133.7813544;163.7521482;128.8495585;97.66611682;154.0271785;123.6430259;0.199630385;0.21282809
297564375;129.8347921;167.5560278;128.8796724;97.81933371;154.8076244;123.6876365;0.199257571;0.225251531
297564421;129.869975;167.4348303;128.8250248;98.00310101;153.6364827;123.7374775;0.199071367;0.225252687
297564453;129.8313758;167.4145706;128.8340127;98.94979416;152.517517;123.7455275;0.199032529;0.225254073
297564484;129.6253574;167.053989;128.8604722;99.37903074;150.4351967;123.6240406;0.198487203;0.225269012
297564515;129.6678082;167.0365262;128.8732569;99.84629922;149.4916245;123.5884524;0.198194997;0.22526833
297564546;129.7529845;166.9676662;128.8365825;100.5079012;147.161531;123.4838003;0.197925306;0.225266191
297564578;129.7626137;166.8246317;128.827357;100.6757585;147.8473787;123.4142005;0.197950749;0.225265761
297564609;129.7704668;166.8507706;128.8206465;101.1276649;144.881571;123.4589614;0.197822942;0.22526632
297564656;129.7654967;166.8564738;128.796754;101.4477401;145.8705714;123.4250717;0.197719726;0.225266774
297564687;129.7900201;166.8195863;128.7639414;101.4077474;147.4345143;123.4902151;0.197681162;0.225266267
297564718;129.8287583;166.7860131;128.7115806;101.8108703;148.6029458;123.5696002;0.19744704;0.225265568
297564750;129.907438;166.6076847;128.6046027;102.1043247;148.4444706;123.4698394;0.197308708;0.225263903
297564781;129.897735;167.0353086;128.4421397;102.9370111;147.0346401;123.4605185;0.19743776;0.225263216
297564812;129.8113181;166.9871815;127.8353818;104.0658298;149.1902503;123.6692794;0.197773967;0.225260779
297564843;129.8288347;167.1845459;127.2795451;111.9023987;136.0663777;123.6326564;0.197717579;0.225258031
297564890;133.2343707;163.8476558;126.8863999;112.3095513;141.1131987;123.9499676;0.197870207;0.221568465
297564921;129.7634496;168.2147086;126.2494005;113.6418037;145.32299;124.2325197;0.197949729;0.225257897
297564953;132.1519351;164.1320828;125.4227081;115.5325444;146.5135303;124.2576075;0.198212302;0.2251092
297564984;136.3693726;154.0764133;124.7511986;116.0099166;146.698917;124.7343018;0.19795839;0.185926889
297565015;136.5069713;154.1033818;124.8115145;103.3567482;158.4356194;134.1638014;0.198129571;0.18569741
297565046;136.5777293;154.6076659;124.8036882;105.6357194;157.7173825;134.1572228;0.197596818;0.186591432
297565078;136.6309188;153.9583066;124.3589884;107.8146322;158.6593986;134.0569485;0.197399925;0.186742505
297565109;136.4827735;153.8352537;124.5196627;109.7293433;157.0422535;134.0827549;0.19788917;0.185934337
297565156;136.5829588;153.8579429;124.3897572;108.5008168;155.9107299;134.6292002;0.198352903;0.184658966
297565187;136.6986644;153.7786276;124.2943581;108.1496845;171.9052393;134.6528342;0.198124152;0.18401342
297565218;136.5631334;153.6781813;123.9963525;112.0558008;155.4118321;135.4329106;0.199663854;0.184129784
297565250;139.4891319;150.0955625;124.8614595;115.6013595;165.2860528;135.6148971;0.183406131;0.196488313
297565281;139.7011429;151.4622143;124.4710216;115.1876942;172.9832055;135.9674156;0.185711232;0.186959406
297565312;139.331055;152.3841844;124.1241682;115.7855326;176.1544115;136.2201362;0.188156311;0.186770545
297565343;136.5284438;151.7857273;124.0479521;130.2572018;168.5594913;124.2359038;0.18855646;0.215749426
297565390;130.8251326;168.4630658;123.959685;136.6621224;162.9930474;124.159016;0.193050809;0.225170004
297565421;130.8811097;167.3927151;123.7892331;137.935468;165.3033558;123.698025;0.193336117;0.225172063
297565453;130.7640772;167.4016045;123.8080228;138.7964839;171.2922769;123.5879638;0.19344075;0.22517844
297565484;130.7144021;167.9609168;123.8478656;139.9529194;172.2979089;123.4205834;0.193525549;0.225179762
297565515;134.4773725;164.9806035;123.733933;145.713428;160.3767266;123.0389457;0.194324416;0.222544574
297565546;130.2996961;170.2643873;122.4651071;146.5136431;157.7383331;120.7993397;0.194305914;0.2252026
297565578;134.3176672;164.4395849;121.6717316;138.9171543;166.9166662;118.8675923;0.194326422;0.224951878
297565609;137.4954519;152.4676467;121.053899;139.0156678;166.8052358;118.015365;0.194724066;0.197519682
297565656;138.3300752;151.5014061;120.7163724;139.285656;166.2266776;117.453946;0.195553505;0.190476726
297565687;138.5839953;152.0451667;120.5691745;139.057611;166.456164;117.1701455;0.194700664;0.190778348
297565718;138.6237995;151.8825754;120.4889181;139.2282531;166.2872113;116.8286289;0.194415661;0.191019245
297565750;138.6332191;152.1411241;120.4507447;123.9649938;171.084281;129.1381751;0.194340477;0.191161207
297565781;138.6009162;152.3648739;120.4122624;144.2073801;171.4872986;129.1813633;0.194289542;0.191150039
297565812;138.6030152;152.3861397;120.3307949;144.1859431;171.6845207;129.192367;0.194257592;0.191258709
297565843;138.4174318;153.2427026;120.1344032;140.4597318;176.5290883;129.2106176;0.195631465;0.189458588
297565875;138.5288159;152.7181664;120.048595;143.5690289;173.4131267;129.1782361;0.19536622;0.189238354
297565921;138.08536;153.2855744;119.8007208;143.7621182;173.526435;129.18484;0.197696749;0.189054209
297565953;132.6290565;163.5258768;119.6938437;143.7743696;173.7408216;129.1921563;0.198276539;0.225067552
297565984;129.4291731;173.2211001;119.5905628;143.7976966;173.8892115;129.1608563;0.198061027;0.22526895
297566015;132.619817;165.5542044;119.4728387;143.8549448;173.8203878;129.1362017;0.198554539;0.225078928
297566046;137.4851473;157.658447;119.3873901;143.9512812;173.5379041;129.1389735;0.19862729;0.193455337
297566078;137.6664896;157.9528478;119.3936002;143.9635588;172.8892633;129.1214555;0.198093739;0.191989864
297566109;137.7499283;158.0907058;119.4917688;144.0167543;173.0477021;129.1135053;0.196866621;0.192928994
297566156;135.3997149;161.1544839;120.2677165;144.0705607;173.0735475;130.5253754;0.196913427;0.214538254
297566187;129.7750281;173.8833258;120.1040782;144.1496529;172.8766617;130.3832578;0.1975795;0.225256698
297566218;133.2755248;116.2919873;119.952005;145.2000168;171.3202638;130.1691778;0.197787239;0.225042766
297566250;135.6856537;179.5252745;96.4434282;145.6822943;170.0469342;129.9223263;0.171469281;0.226093115
297566281;135.663179;179.8025524;96.46850641;145.8692246;170.467271;129.8491614;0.171460515;0.226092965
297566312;135.5965114;179.1961501;96.480844;146.1518921;169.88633;129.7851293;0.171440146;0.226092416
297566343;157.0297355;135.9942805;96.43467907;145.7137139;170.3845076;129.7941735;0.171444537;0.225677846
297566390;157.6128514;137.7945485;96.44361678;146.1022752;169.5607609;129.6552791;0.171458312;0.213939373
297566421;157.8003382;137.4049806;96.46422794;145.6146349;170.0806152;129.604494;0.171463264;0.212739548
297566453;157.9586139;137.2602684;96.46266088;145.4890428;171.0027671;129.4981885;0.171461503;0.211091382
297566484;158.0100453;137.5154833;96.43430781;145.4578206;171.0116966;129.3530318;0.171467275;0.210695209
297566515;157.9925257;136.5610114;96.47767778;146.2641103;170.1611946;129.2865162;0.171469762;0.210160211
297566546;135.9748013;178.8960362;96.43260696;146.5474805;169.7268849;129.2935908;0.171471224;0.226092626
297566578;135.9276303;178.734923;96.43713979;146.0503663;170.3132068;129.3025162;0.171465138;0.226092532
297566625;135.9500371;178.6558891;96.38880136;146.3508794;169.7951973;129.2756491;0.171468772;0.226092595
297566640;135.91192;178.4898794;96.37460772;146.5883907;169.3654853;129.1731359;0.171465379;0.226092444
297566687;135.8739955;178.4949189;96.38861292;145.9153874;170.3179267;129.1646008;0.171464922;0.226092541
297566718;135.9190118;178.6261505;96.31463152;145.6048871;170.8770926;129.1161045;0.171471734;0.226092296
297566750;135.9150443;178.8709888;96.29845257;145.4749098;170.9486472;129.1483511;0.171471874;0.226092314
297566781;135.9659879;178.7938944;96.29887792;145.7714216;170.2053361;129.1464358;0.1714806;0.226092406
297566812;157.0619594;136.1671685;96.2612104;146.1656641;170.3542512;129.1342222;0.171481607;0.225686333
297566859;135.9250545;179.0068061;96.23254435;146.3052884;169.3406093;129.0518197;0.171492306;0.226100823
297566890;135.9071723;179.1176734;96.23711363;146.5825944;168.8951593;129.0822056;0.171490641;0.226100888
297566921;135.8488176;179.1390491;96.26966623;145.9866385;169.6570345;129.0953425;0.171483218;0.226101043
297566953;135.8722545;178.9421138;96.25641876;145.7617315;170.1745824;129.0695879;0.171493151;0.226109367
297566984;135.9853023;179.17084;96.15005851;145.5731946;170.2938065;129.0888046;0.171509877;0.22611758
297567015;135.9856181;179.1416189;96.15102794;146.2555549;169.4521808;129.1048649;0.171509661;0.226117566
297567046;135.9606683;179.3629331;96.16828055;145.727974;169.9303027;129.065142;0.171508493;0.226117591
297567093;135.9033649;179.2688777;96.20394283;146.2275388;169.4137892;129.0475711;0.171501962;0.226117517
297567125;135.9049066;179.4582836;96.19204231;146.3712092;168.8096606;129.0621252;0.171502599;0.226117583
297567156;135.9097262;179.4250362;96.19022677;145.9081271;169.4477387;129.062755;0.171500127;0.226117355
297567187;135.9061405;179.1609876;96.19519957;146.3506168;168.9742637;129.0566395;0.171499294;0.226117217
297567218;135.9145467;179.3254355;96.20227163;146.5291534;168.847853;129.0464406;0.17149728;0.226117132
297567265;135.9438843;179.1935211;96.21436145;146.6846745;168.2624631;129.0557581;0.171491748;0.226116476
297567281;136.041188;179.0633088;96.21229439;146.0473447;169.6479209;129.0586696;0.171510405;0.226122929
297567312;136.09296;179.3594935;96.18147418;146.238144;169.4136067;129.0427899;0.171518816;0.226125849
297567343;136.1664796;179.0025405;96.14516334;145.7045469;169.8723307;129.0169097;0.171527208;0.226125525
297567375;136.1435003;178.9662809;96.16662087;146.2422584;169.1728096;129.0562509;0.171526005;0.226127625
297567421;157.3298668;135.2735533;96.16496566;146.3386704;169.0103501;129.090542;0.171528696;0.225721762
297567453;136.2797682;178.3700437;96.23809567;146.485775;168.698044;129.1014339;0.171531443;0.226137748
297567500;136.2593547;178.6215644;96.26251483;146.5845771;168.456103;129.1096842;0.171535136;0.226145066
297567515;136.3062918;178.5864607;96.30311188;146.6725586;168.2027007;129.1117624;0.171545044;0.226148308
297567546;157.1117065;135.6933935;96.36130974;146.7202768;168.2961604;129.1162906;0.171545751;0.225749885
297567578;136.1458152;179.0490174;96.44149529;146.2122085;169.4187331;129.0519158;0.171548226;0.226155225
297567609;136.1492004;178.8916018;96.46554833;145.8134206;169.4932098;129.0715229;0.171550521;0.226158442
297567656;136.1325976;178.9413995;96.50431512;146.3157844;169.1695495;129.0787338;0.171549707;0.226163066
297567687;157.7111496;135.3666926;96.45096029;145.8406055;169.9882368;129.1099851;0.17156134;0.225130857
297567718;136.3277042;178.6399641;96.47073456;145.6428114;170.1414318;129.1141774;0.171559133;0.226159858
297567750;136.3582254;178.3185704;96.48521035;146.1481486;169.4119213;129.1128418;0.171559709;0.226156746
297567781;136.333537;178.3517789;96.53507544;145.7995092;169.9180795;129.1347734;0.171554405;0.226154939
297567812;157.7888906;135.9911648;96.53366948;146.2971869;168.6846483;129.1153424;0.171555009;0.225230018
297567843;136.5432697;177.8859693;96.57453091;146.53887;168.7855212;129.1287935;0.171547295;0.226148189
297567875;136.5441099;178.8646125;96.64460637;146.8192832;168.1091153;129.177932;0.171549424;0.226145331
297567921;136.5498746;178.4621647;96.65137843;146.8708005;168.0389516;129.1808052;0.171549005;0.226141407
297567953;136.5005245;178.5747523;97.40240339;146.8966435;167.8603041;130.8895682;0.171541433;0.226140163
297567984;136.5324265;178.6149997;97.3810103;146.9617519;167.6805241;130.8288412;0.171541416;0.226135848
297568015;136.5569997;178.1161512;97.32990747;146.9857564;167.8345887;130.6683905;0.171543533;0.226135641
297568046;136.5619231;178.1211282;97.6935571;146.9899437;167.6400774;131.5294777;0.171543124;0.226135577
297568078;136.5506897;178.0274021;97.57764428;147.0029944;167.9879203;131.266071;0.171541118;0.22613568
297568125;136.5435024;178.0315975;97.51986048;147.0200139;167.694932;131.1294353;0.17153852;0.226135298
297568156;136.4981634;178.0889997;97.44621265;146.0911665;170.1251553;130.8720632;0.171530082;0.226131241
297568187;136.4304281;178.1992077;97.4560992;146.3558645;169.356412;130.7703738;0.171521745;0.226130142
297568218;136.3878649;178.0537638;97.39837611;146.45117;168.8113376;130.6682009;0.171521466;0.22613094
297568250;136.3514884;178.471628;97.34051698;146.6023682;168.7760008;130.5173559;0.171523684;0.226133224
297568281;136.3473104;178.6687506;97.30604198;146.707635;168.5674073;130.4463276;0.171530507;0.226134452
297568312;136.3367272;178.7588218;97.27574513;146.8077609;168.2465806;130.4027314;0.171533634;0.226135307
297568359;136.3241256;179.002716;97.26655543;146.8097111;168.0158943;130.3298897;0.171530837;0.226137886
297568390;136.3354324;178.7377694;97.22298599;146.8659644;168.2910601;130.2113406;0.171531731;0.22614016
297568421;136.3093826;178.771318;97.2280233;146.8771092;167.682239;130.1213723;0.171531444;0.226142032
297568453;136.2579672;178.1394376;97.23752583;146.9125268;167.5263087;130.0753333;0.171529159;0.22614654
297568484;157.4885622;136.1169911;97.21744577;146.9852831;167.4765654;130.0542399;0.171536108;0.22573208
297568531;135.9951405;178.0106768;97.19320077;147.0211957;166.6782854;130.0204889;0.171539548;0.22615358
297568546;157.1328411;135.2387644;97.16672089;147.016142;165.750867;129.9859308;0.171550996;0.225755398
297568578;158.2342371;136.4173731;97.0096963;147.0539098;165.9118238;129.9904101;0.171596293;0.209248395
297568625;135.3480201;177.9608347;96.96041613;144.8302096;169.4361733;130.0017161;0.171605333;0.226165325
297568656;135.1978344;176.3214783;96.72979006;145.0949381;167.7973084;129.9824058;0.171654446;0.226165067
297568687;134.7309259;174.3605161;96.46489201;145.0585066;166.493545;130.035421;0.171708536;0.226168507
297568718;133.4917005;174.0347551;95.86348031;145.4571661;160.4032046;130.1291341;0.171829485;0.2261773
297568750;156.6771503;127.3328189;95.75932614;144.8245543;160.1836388;131.6228583;0.171948746;0.211609917
297568781;156.0946097;146.0882174;96.17954832;140.7759854;164.1338542;132.3128801;0.171298185;0.225718084
297568828;157.7911932;140.7026845;96.25664663;137.2052178;162.089557;132.9815868;0.17131917;0.218573728
297568843;157.9255889;138.6459485;95.87187111;127.4916728;164.7253962;133.3723035;0.171450883;0.209559475
297568890;157.7204387;136.821747;95.02013284;128.9530993;139.8098598;134.2208472;0.171682276;0.205941614
297568906;157.7349914;137.0957643;94.4111374;119.7753393;151.4177872;134.614964;0.171865208;0.203631919
297568953;157.6076791;132.5305104;93.66581012;108.541571;109.7461043;135.0278906;0.172049307;0.198957836
297568984;137.7891636;132.8938088;122.6965291;112.0567756;149.8665752;134.9432163;0.19117185;0.198560106
297569015;136.9368832;131.9191049;123.014858;112.8741082;143.2955429;135.0960376;0.193875917;0.19624519
297569046;136.5991221;128.9361487;122.7344166;114.7390282;136.564325;133.9652249;0.195169968;0.194478485
297569078;134.9508913;124.4966736;122.8670261;104.0018835;159.7533588;134.2057545;0.196433014;0.210229877
297569125;136.1524302;122.6949085;123.0123449;103.8621181;152.5264302;133.9960099;0.195970048;0.198010661
297569156;134.6873855;115.8878407;123.3613388;101.5357074;151.6159464;134.0409553;0.193830017;0.217024816
297569187;129.050591;166.6820844;123.6935533;99.82992001;149.9458885;134.1473225;0.193147934;0.225345142
297569218;129.1844498;167.0187655;123.9643208;96.62059285;152.5962591;134.1108358;0.193221656;0.225342525
297569250;129.2217401;166.9886304;124.3009125;94.97406688;151.08699;134.3835693;0.192791735;0.225343039
297569281;129.5378239;167.2433659;124.6763526;93.67217311;147.9974193;134.5888935;0.192753248;0.225328377
297569312;129.6515039;170.6238159;124.9348097;92.01111414;147.1679899;134.5723541;0.192574662;0.225325614
297569359;129.8666465;170.8444365;125.0772538;91.0194596;143.8242771;134.3789039;0.192624886;0.225318532
297569390;129.9300381;170.6613523;125.1671141;98.27610252;152.1550457;126.9706206;0.192649609;0.2253186
297569421;130.1585359;170.7311298;125.5549465;93.98640533;160.6006252;127.0705236;0.191251073;0.225304792
297569453;130.0739522;170.59133;125.6333232;92.83733853;161.7985816;127.0136047;0.192599447;0.225310995
297569484;130.0555462;170.7836213;125.7609123;91.81438694;162.3641022;126.9247472;0.192671596;0.225310113
297569515;130.1393908;170.2262574;125.894169;91.54016644;162.700262;126.8366668;0.193139062;0.225303806
297569546;130.1302998;170.4825207;125.9522256;91.40752698;163.5073036;126.7210516;0.193252483;0.225306245
297569593;130.158136;170.3454947;126.0507392;91.3240409;165.0829281;126.8306327;0.193546529;0.225307003
297569625;130.1789935;170.4933395;126.0783757;92.46740248;160.6472554;126.8713107;0.193552983;0.225306624
297569656;130.2521307;170.6183595;126.0588541;91.80317513;165.2912439;126.8930035;0.193646063;0.225304015
297569687;130.3066916;170.3074849;126.014263;92.24144625;167.2671276;126.8805463;0.19374108;0.225303613
297569718;130.3581393;170.7324668;125.9744281;92.09657911;168.0226811;126.881843;0.193753694;0.225302266
297569750;130.1311562;167.2116456;126.0287408;92.92216131;169.3229064;126.9162832;0.194545959;0.225302329
297569781;130.1095046;170.6483075;126.0095982;93.47910025;170.6256253;126.9221944;0.194764675;0.225301308
297569828;129.7644912;170.8724831;126.0573713;94.25585738;171.354762;126.8845755;0.195985137;0.225306616
297569859;129.7540713;170.6195652;125.9391009;95.52825048;172.2333773;126.8629855;0.195995394;0.225304631
297569890;129.8054242;167.2311962;125.8749605;97.04356682;172.3985537;126.8227367;0.195009687;0.225302462
297569921;133.4802777;155.5446293;125.7898514;100.4424479;168.2405948;126.3716222;0.1951936;0.224086769
297569953;133.3711024;155.985572;125.6614388;102.3096811;167.7945049;126.404759;0.195977463;0.224094213
297570000;136.061475;143.4936415;125.5260358;106.035198;162.7463449;126.5441407;0.195645324;0.198006654
297570015;136.6136104;143.4515761;125.3777121;109.9224767;156.3973773;126.7222856;0.194273965;0.1956566
297570062;137.0330025;143.5929621;125.1005624;111.1540749;153.285229;126.9102994;0.194126151;0.191690183
297570078;137.7239882;142.5166199;124.7539989;99.4331819;161.1223548;134.9065949;0.194067498;0.189237801
297570125;137.6991568;151.089837;124.4134227;101.6982529;161.4855103;134.86271;0.194023251;0.189055464
297570156;137.7459331;151.5920447;124.2197739;103.7427272;160.680638;134.9056793;0.193947093;0.188695313
297570187;137.4955311;151.8950025;124.1603972;105.9729257;158.2252007;134.9522281;0.19503182;0.188186024
297570218;137.4251898;151.8117983;124.2676095;107.9167826;153.0602349;135.1115695;0.194514513;0.189176481
297570250;137.3094879;151.7881143;124.15853;114.0232674;145.7625506;135.4087627;0.19480877;0.188864643
297570281;137.1065798;151.7954974;124.1575132;117.113471;142.1299609;135.6997571;0.195100392;0.188507067
297570328;137.3660051;151.6056116;124.1734383;113.7368578;157.0077039;135.8259561;0.193787744;0.1873109
297570343;137.3311399;152.8377874;123.9549682;112.7587575;159.4446118;136.5166113;0.194464271;0.187185235
297570390;137.5682402;152.1009387;123.8149217;120.953871;161.9541092;127.1366079;0.194711537;0.185436816
297570421;137.6886685;153.0128983;123.6605869;127.8403419;155.1538728;127.1335361;0.195216985;0.185561571
297570453;138.9390784;151.6708446;123.325392;127.9763243;162.8163908;127.0494709;0.192576688;0.188339984
297570484;138.9632288;152.4553912;123.1335722;130.6324005;158.7822891;127.0824957;0.193694789;0.188115219
297570531;139.2864411;152.0867824;123.17652;131.103688;164.8604978;126.7069959;0.191705365;0.190281028
297570546;139.0192185;152.9977671;123.0643037;131.570232;171.1715332;126.575865;0.193068545;0.18953803
297570593;138.8870406;152.3262704;123.058223;134.0430201;167.0744623;126.4159769;0.193321665;0.190282061
297570625;138.2148839;154.1278446;123.0777887;134.2416727;170.1330103;126.3357764;0.195518186;0.189157177
297570656;138.2171993;153.3232034;123.1254414;136.7744908;164.05784;126.2844177;0.19521968;0.189849485
297570687;138.5481002;152.4479282;123.2220192;137.281202;164.0814622;125.9539896;0.193805073;0.191034694
297570718;138.5944669;152.5803616;123.1807641;134.6791809;175.4995024;125.5712169;0.193766274;0.191069666
297570750;138.4594669;152.5510782;123.2138376;130.7973547;148.7756833;125.4936294;0.194519664;0.190503971
297570781;138.4498684;153.4245846;123.2276577;139.1037726;163.3193909;125.1728933;0.194243373;0.191066004
297570812;135.5471428;153.990781;122.9584753;142.2338912;139.98351;136.6428708;0.19585393;0.212750901
297570843;136.6893508;152.2041272;122.9278827;137.3130553;144.6314032;136.4873034;0.196140953;0.20075502
297570890;137.2412807;154.0819332;122.9471377;137.2304459;146.9793743;136.3794611;0.196736548;0.195518289
297570921;137.0802214;153.3619221;122.824404;145.183842;142.8412069;136.191571;0.197840699;0.194454924
297570953;132.9407176;164.3705848;121.8202673;145.4485685;143.2285416;134.0306595;0.197683584;0.225111986
297570984;132.9391471;164.4906076;121.1111371;145.6988786;143.4730289;132.980799;0.198382249;0.225117045
297571015;128.9681072;171.4747665;120.5896228;145.8131896;143.8912961;132.1029936;0.199141185;0.225359978
297571046;129.1863821;171.4908986;120.3652976;146.035713;143.8213601;131.424747;0.198343984;0.225347767
297571078;129.1472532;171.3481695;120.254923;146.1119886;144.4956063;131.0959046;0.198242586;0.225348807
297571125;134.3808725;157.1060094;120.1028344;146.3124123;144.0889957;130.8739775;0.19778591;0.221257327
297571156;129.3408087;172.6383756;119.9435725;146.4331957;143.9565655;130.7470882;0.19817145;0.225342814
297571187;129.3245374;170.9575173;119.8270501;146.6472132;144.3931387;130.6644329;0.198531306;0.225346563
297571218;129.3780199;166.8388914;119.7634813;146.8612322;144.3561604;130.5332516;0.198184129;0.225345506
297571250;129.9672201;166.7153036;119.2591546;147.0652037;144.1998299;130.3890908;0.198260683;0.225337547
297571281;129.8227124;166.7336122;119.2514453;147.4887607;144.0624797;130.2870956;0.198673165;0.225342085
297571328;129.9001345;166.86565;119.2350367;144.4620169;166.406956;130.1083749;0.197769966;0.225337363
297571359;134.4428302;164.1407577;119.2179354;144.2616579;167.4082352;130.0321283;0.197884466;0.223790472
297571390;135.8478335;155.3055288;119.0695208;144.1953007;167.7970943;129.9347249;0.198442767;0.20437579
297571421;136.7925915;157.7456014;119.1879052;145.9204701;164.1795727;129.8441093;0.197323538;0.197533275
297571453;137.1877425;156.92676;119.2552658;145.2761148;160.0047009;129.7809513;0.196752143;0.195838843
297571484;137.4592815;157.1177567;119.3432011;146.4176057;162.9809479;129.6577849;0.195543216;0.195204338
297571531;138.1384266;156.3567144;119.2256485;146.6706287;167.7685131;129.6031913;0.194392989;0.195059777
297571546;138.1485326;156.1828545;119.2039828;145.3179958;169.6066995;129.5398443;0.194341914;0.195002819
297571593;138.1722427;156.3393304;119.2292329;145.8044244;168.8994383;129.4856884;0.193935726;0.195270151
297571609;138.2583099;156.1066656;119.2838066;146.1125742;168.2480052;129.4820918;0.193647197;0.195204033
297571656;138.4113971;155.776369;119.2815705;145.2228482;169.7377065;129.4441524;0.193495436;0.194964381
297571687;138.4273599;154.4328255;119.2516448;144.7829767;170.9519526;129.419417;0.193482129;0.194655276
297571734;138.4769625;155.240425;119.2014656;145.794402;168.2100784;129.4062163;0.193289847;0.194760571
297571750;138.4450546;154.9273287;119.2232477;145.9984301;168.0995499;129.3665431;0.193201491;0.194887637
297571781;138.5247381;151.1042063;119.1968048;144.9672066;169.6827081;129.3006917;0.193142152;0.194586537
297571812;138.5081451;152.8832262;119.2015252;145.5162339;168.5565026;129.2754752;0.193145326;0.194643875
297571859;138.5312238;155.7652351;119.1807816;145.8300469;168.6922913;129.282567;0.193143642;0.194589903
297571890;138.5786536;155.2243294;119.1696641;145.9330875;168.6673301;129.2702297;0.193078868;0.194495825
297571921;138.5932658;155.6442155;119.1929568;146.0397044;167.6690789;129.2762236;0.192781508;0.194766544
297571953;138.6430528;155.2409074;119.218642;146.1711786;167.1992125;129.269388;0.192469832;0.195005578
297571984;138.6484832;155.3945136;119.2555303;146.2455917;167.1903848;129.283674;0.192188469;0.195305411
297572015;138.6709555;155.514213;119.2379037;146.2780223;167.5360116;129.2525;0.19217092;0.195321942
297572046;138.7679318;154.9053848;119.1953424;145.0930976;169.3462648;129.2036242;0.191898536;0.19547088
297572093;138.7294484;155.3349709;119.2011251;145.4499998;168.4564724;129.1898628;0.191921711;0.19559186
297572109;138.7044169;155.2947601;119.219247;145.7140105;168.3247847;129.1093869;0.19186804;0.195639863
297572156;138.7062664;155.1204628;119.2291966;145.8576675;168.0593248;129.0567228;0.191790542;0.195664145
297572187;138.7085027;154.3746313;119.2602352;145.9912339;167.7072646;129.0349841;0.191595352;0.195733511
297572218;138.7214088;153.9368212;119.2325203;146.1224405;167.741045;129.0101592;0.191622466;0.195751426
297572250;138.7221285;153.3857454;119.2212422;146.2268637;167.5165665;128.9307049;0.191584941;0.195729617
297572281;138.6793168;154.2815245;119.2150947;146.3495718;167.8095594;128.9006008;0.191488795;0.196000039
297572312;138.6968634;153.4149864;119.2066648;146.4723571;167.6756539;128.8222975;0.19148791;0.195970229
297572359;138.1782726;153.8410875;119.4131432;146.5101451;167.7427214;128.7746442;0.192719576;0.196014368
297572390;138.2113932;153.5506101;119.3976644;146.5499197;167.6729218;128.7411943;0.192561914;0.195818161
297572421;138.0266868;155.1306885;119.3621642;146.6560997;167.7584159;128.7076097;0.19335944;0.195098426
297572453;138.0724023;153.9156558;119.3199634;146.7521579;167.5689473;128.6295583;0.193311694;0.19505041
297572484;138.0839575;153.7204084;119.3150212;146.7893947;167.1978284;128.6058652;0.193127336;0.195170367
297572515;138.1677873;153.6965825;119.2151953;146.8425872;167.518453;128.5540989;0.193017589;0.195038147
297572546;138.1720909;155.317705;119.2125059;146.8807215;167.1532093;128.524181;0.193019517;0.194963633
297572593;138.212046;154.8087463;119.1149935;146.8767193;167.0959059;128.4610678;0.192936821;0.194923061
297572625;138.187678;154.4023139;119.2645031;146.8918515;167.3255518;128.3564279;0.192324211;0.19489529
297572656;138.2008605;155.2074863;119.2703191;146.9255086;167.3122684;128.3101272;0.192284881;0.194890176
297572687;137.8054814;155.6398207;119.2458332;146.9489891;167.1391071;128.2700947;0.193226655;0.19442522
297572718;137.8488029;155.1067931;119.2555408;146.9698735;167.3668344;128.2634209;0.19306426;0.194426253
297572750;137.8904128;155.0381737;119.2352844;147.086225;167.3713446;128.2128061;0.192992921;0.194387023
297572781;137.9363546;155.5746031;119.1877011;147.1528604;167.3909958;128.1510639;0.192901402;0.194391328
297572828;137.915529;155.2644912;119.1745846;147.1651503;167.1883484;128.0532246;0.192818063;0.194389937
297572859;137.9242644;155.5783305;119.1757076;147.3570357;167.0217059;128.0438154;0.19277126;0.194445919
297572890;137.9197843;154.4452211;119.1663873;147.3752269;166.9847156;128.0479782;0.192764944;0.194489297
297572921;137.9942946;155.1192023;119.1801353;147.3563516;166.892272;128.0419303;0.192528091;0.194443262
297572953;138.0805597;153.1664017;119.1343628;147.3883558;166.0295093;128.0090382;0.192390353;0.194509804
297573000;138.0998555;155.3121903;119.1465774;147.4286741;167.0919321;128.0121797;0.192358841;0.194502684
297573015;138.1110064;155.4851805;119.1532709;146.270655;168.9291353;127.9154686;0.192334646;0.194510238
297573046;133.2205203;163.4161683;119.1347214;146.664816;167.9201883;127.8588913;0.192327481;0.225117919
297573093;137.362398;156.2874263;119.1365664;146.1175331;168.9063999;127.8618592;0.192326607;0.19672625
297573109;137.4360609;156.007254;119.1558791;146.5763701;167.9765333;127.8443288;0.192210106;0.196617551
297573156;137.6190567;156.0136475;119.1556493;146.8164553;167.4301088;127.8020169;0.192020143;0.196121726
297573203;137.6777884;155.8706443;119.1397784;146.100255;168.7692073;127.7576107;0.192006715;0.195984112
297573218;137.5946575;155.9041414;119.0278449;145.9263098;168.8195076;127.7555162;0.192802029;0.195295641
297573250;137.3468057;156.3187212;118.9672815;146.5154235;167.3604898;127.7572171;0.19413732;0.194117802
297573281;137.6163784;156.1961742;118.9685225;146.9498462;167.4679492;127.7514091;0.194133485;0.192794249
297573328;137.6428;155.9000835;118.9795339;147.2397756;166.3908909;127.7557395;0.194037663;0.192896568
297573343;137.5889785;155.1905316;118.9030554;147.3023351;166.6092712;127.7641147;0.194909996;0.192081381
297573390;137.5990068;156.0539451;118.935471;147.396594;166.6898219;127.7813729;0.194704413;0.192317326
297573421;137.6211883;155.8935063;118.9654574;147.5174652;166.4094314;127.7955687;0.194471046;0.192567882
297573453;137.7763657;155.9364241;118.9601476;147.5688074;166.0588675;127.7829832;0.194318122;0.191992556
297573484;137.8175281;155.8592706;118.9678636;147.6300655;165.468034;127.7367828;0.194116234;0.192083054
297573515;137.8926171;155.6579069;119.0030208;147.6909402;164.9424552;127.7419799;0.193547162;0.192556342
297573546;137.9505944;155.7020899;118.9890332;147.6925666;165.0388238;127.7441117;0.193399049;0.192630054
297573593;137.7048761;156.1770884;118.9482362;147.6805172;165.0770097;127.7712446;0.194324278;0.192095151
297573609;137.7350594;155.6968129;119.0125651;147.7230335;165.0635906;127.7639594;0.193879308;0.192509223
297573656;137.8769407;155.2012759;118.9864818;146.584778;167.8922442;127.7402427;0.193515786;0.192765651
297573687;137.9195101;155.6149261;118.9900553;146.8458046;167.5486131;127.7430335;0.193320473;0.192951521
297573718;133.8550112;161.8197378;119.001174;147.1235151;167.3249256;127.7587038;0.193301863;0.225076953
297573750;129.9672184;173.8948044;119.0214383;147.2416588;166.9310347;127.7408416;0.192769926;0.225318103
297573781;129.9924607;171.4665459;119.0272197;147.3078295;166.0634135;127.7061015;0.192588514;0.225317028
297573828;129.9791927;167.5538533;119.0174961;146.4561529;168.6389832;127.7057072;0.192572359;0.22531792
297573843;130.0999051;167.6812401;118.9882358;146.8878141;167.5294084;127.7299824;0.192131752;0.225315376
297573890;130.0833489;167.65079;119.0197139;147.0377197;167.9717065;127.7162781;0.192053776;0.225315566
297573921;130.1023519;167.6112435;119.0237098;147.1655211;167.2133822;127.6088502;0.191952504;0.225315289
297573953;130.1227429;167.4045576;119.0150276;147.3731195;166.3386871;127.6034472;0.191825834;0.225318258
297573984;130.0835017;167.5549096;119.0333804;147.4138181;166.1309355;127.6173817;0.191750112;0.225322236
297574015;130.1077417;167.5731292;119.0067135;146.4922326;168.269218;127.6318799;0.19171721;0.225325381
297574046;130.0939208;167.4679602;119.0399516;146.8027212;168.0767279;127.6406049;0.191560519;0.22532683
297574078;130.1413479;167.6229301;119.0404685;146.9576654;167.0095527;127.6411335;0.191520991;0.225327724
297574125;130.1496659;167.5892125;118.9861483;147.1840683;167.7243355;127.6549034;0.191701818;0.225329835
297574156;130.148138;167.3804116;118.993958;147.2795549;166.8069088;127.6608886;0.191650436;0.225331641
297574187;130.1474122;167.4219087;118.9961392;147.2813741;166.7074306;127.6554714;0.191629172;0.225333549
297574218;132.2345204;168.6501838;119.0159331;147.3341753;166.922598;127.6655866;0.19158796;0.225210174
297574265;132.8923249;166.7769335;119.0096777;147.355042;166.6180499;127.6632087;0.191578364;0.225171153
297574281;130.9336511;170.7938381;119.007974;147.4238543;166.1966773;127.6800965;0.191561789;0.225293405
297574312;130.4738927;171.3162313;119.0262367;147.4334687;165.796062;127.6827311;0.191497656;0.225320001
297574343;134.4329939;163.2104319;119.0180241;147.4709006;165.5784276;127.6866816;0.191466642;0.225069825
297574375;130.1293359;167.4064182;119.0216476;147.5217802;165.5578348;127.6945051;0.191430914;0.22534187
297574421;137.741266;156.0883094;119.0009912;146.3116605;168.589114;127.7176606;0.191362583;0.196108297
297574453;137.7948399;156.0169559;119.0603566;146.76463;168.1995933;127.7313331;0.191266984;0.195985175
297574484;137.5986556;156.2625898;118.9997647;146.9478608;167.5271087;127.7558621;0.192184375;0.195227613
297574515;133.6793482;162.1718374;118.9981747;147.030158;167.7676484;127.774973;0.191984435;0.225119088
297574546;129.8126699;171.6959742;118.9847202;146.2451517;168.5210871;127.7989715;0.191751018;0.225361705
297574593;129.8136382;163.9696233;119.0392267;146.6278835;167.82004;127.8857745;0.191627769;0.225362164
297574609;129.8741221;167.1087286;119.0141081;146.8069416;167.6519728;127.8966078;0.191496624;0.225361046
297574656;129.8682896;167.0370384;119.096725;146.2173257;168.3194102;127.9779458;0.191392606;0.225360422
297574687;129.8887075;167.1124827;119.1335986;146.6520189;167.8487488;128.0953268;0.191388515;0.225359355
297574718;129.9062043;167.1395587;119.1353619;147.0058681;167.4241245;128.1201444;0.19136847;0.225359171
297574750;129.9311979;167.0129277;119.1329467;147.1096614;166.9827451;128.155995;0.191415819;0.225358805
297574781;129.9371429;167.1817324;119.1916022;147.2629452;166.8793085;128.2065265;0.191125575;0.225357279
297574812;129.9600938;166.9717426;119.1651829;147.3245575;166.7849885;128.2123827;0.191167311;0.225356542
297574843;129.9918665;166.9014544;119.1795323;147.3910846;166.6011423;128.2500976;0.191118856;0.225355008
297574890;129.9962891;167.0429619;119.2196046;147.4160856;166.5307661;128.3247003;0.190945952;0.225352523
297574906;130.0086508;166.9577546;119.2392287;146.3580565;168.4312793;128.3757811;0.190945737;0.225350613
297574953;132.5471233;168.7476204;119.2459802;146.0431852;168.3571704;128.4086732;0.190936142;0.225196303
297574984;131.4102778;168.2213928;119.2178717;145.7721842;168.6608411;128.4537454;0.190916666;0.225266991
297575015;131.021059;168.0780115;119.2210836;145.5441881;168.2354381;128.4594243;0.190933931;0.225288338
297575046;130.8232642;167.850379;119.2361731;146.3020626;166.0849525;128.4969648;0.190883327;0.22530085
297575078;130.7357455;167.8450081;119.2975469;145.3720324;167.0300773;128.5899659;0.190816448;0.225305173
297575125;130.6414651;168.0475086;119.275265;145.5382397;166.067996;128.640758;0.190841588;0.225312133
297575156;132.1405618;170.7579094;119.1705846;145.5176104;164.919085;128.6461384;0.192969825;0.225221355
297575187;130.9909741;171.702727;119.0892279;145.5024843;164.5783837;128.7016779;0.193721313;0.225294013
297575218;130.5546219;171.9875938;119.0525183;145.3456656;161.9429746;128.8912976;0.194559117;0.225316505
297575250;130.4662533;171.9252961;119.0710184;145.4779076;157.3793885;129.0059387;0.194390958;0.225321623
297575281;130.35728;171.7204588;119.0559907;145.0122136;149.3919613;129.0949797;0.194497307;0.225328153
297575312;130.4181464;165.9475057;119.063886;144.2394661;160.9150162;129.210339;0.194655349;0.225323781
297575343;130.4305489;168.3287221;120.2991773;139.9955947;165.4730955;131.2121501;0.194737667;0.225317347
297575390;130.4932997;168.2524588;120.8307412;133.1949948;165.1623901;132.3920483;0.194714212;0.225312947
297575421;130.5015333;168.1504448;121.0470436;133.889955;161.3769312;132.8540899;0.194738042;0.225312537
297575453;130.6561272;168.2489765;121.432936;131.8116956;146.3288887;133.5918113;0.193708891;0.225302865
297575484;130.742057;167.9440454;121.1831444;130.3322378;139.2299511;134.0053164;0.195367658;0.225308315
297575515;130.5916753;167.9667543;121.4714974;129.2044598;137.6960162;134.4830527;0.19607182;0.225307667
297575546;130.8064047;168.2067081;121.7355649;130.00703;132.3374066;134.7869146;0.194010201;0.225284502
297575593;130.9811831;168.6865381;122.1613716;131.0249332;130.5580754;135.1810005;0.191381251;0.225280145
297575625;131.1025992;168.6483647;122.2211765;137.5836081;122.8944812;135.3093688;0.190075661;0.225281003
297575656;131.0107763;168.2053704;122.3110651;136.3674413;112.6271547;135.5389492;0.190141003;0.225299847
297575687;130.6753412;167.9611397;122.3375041;131.9083372;112.9232344;135.8008619;0.192235296;0.225315224
297575718;130.4087946;167.8851014;122.4780318;110.0426041;157.8999637;135.9831634;0.193031257;0.225321553
297575750;130.4875908;167.8213872;122.4773706;102.0574172;163.0310864;135.5055617;0.193059035;0.225319778
297575781;130.4400966;167.7199686;122.3006221;105.3829319;143.3287081;134.2552943;0.193675548;0.225324764
297575812;130.5265283;167.8444876;122.4567488;104.512416;139.0115573;134.4828141;0.193836013;0.225321408
297575843;130.5266331;167.8795578;122.665041;100.6877282;143.1891491;134.3938969;0.194052098;0.22532142
297575890;130.509131;172.028101;122.9422584;99.4712136;139.5813489;134.5115443;0.194232244;0.225322138
297575921;130.4322229;171.9484933;123.2743476;113.7224244;134.0504853;127.7754857;0.195444675;0.225328731
297575953;130.4119613;171.8754579;123.6545866;107.5043857;142.2084845;127.0864469;0.195607681;0.225330147
297575984;130.3471049;171.6743392;123.8296684;105.0508844;141.9417757;127.2592327;0.195889244;0.225331676
297576015;130.2669734;171.6760653;123.9987323;103.766033;139.8187727;126.614266;0.196145142;0.225334203
297576046;130.2164801;172.7873677;124.100887;101.8960701;140.0296169;126.4481622;0.196378317;0.225336469
297576078;130.2244871;173.0122387;124.1007916;99.74068561;141.4157142;126.5240106;0.197213794;0.225341685
297576109;130.1817645;172.2107352;124.1493826;98.70771866;141.8470515;126.621595;0.197378546;0.225343559
297576156;128.5071804;164.4287101;122.6611277;97.91178941;143.213139;126.6898624;0.215466536;0.225447475
297576187;128.8124802;165.8279047;123.6200227;97.49172302;144.2928008;126.6739656;0.208877259;0.225416091
297576218;129.0017021;166.0708555;123.9118351;97.19262332;146.0091891;126.6047155;0.207385874;0.225406777
297576250;129.1284715;166.3183833;124.1178875;97.11213757;147.3315345;126.6114936;0.205555012;0.22539668
297576281;129.2577407;166.3300866;124.1500619;95.81947398;155.427186;126.5688842;0.204710604;0.225391541
297576312;129.3802467;165.8247073;124.2301165;96.32877104;154.1603402;126.5699308;0.203573879;0.225382714
297576359;129.5166602;165.7983273;124.2127084;96.64451864;154.2734442;126.5422212;0.202810974;0.225377874
297576390;129.5550505;165.7394929;124.2872533;97.12193276;154.0557082;126.5304253;0.202054966;0.225374246
297576421;129.6058059;165.8242088;124.2945531;97.40100026;156.2274579;126.5221756;0.201809906;0.225372368
